4-Methyl-2-pentanone
cm^-1,Intensity
150.0,8387.0341796875
151.0,8242.2177734375
152.0,8113.8125
153.0,7999.0732421875
154.0,7895.1806640625
155.0,7799.8115234375
156.0,7711.34228515625
157.0,7629.423828125
158.0,7556.00341796875
159.0,7495.630859375
160.0,7453.72314453125
161.0,7433.24755859375
162.0,7432.30859375
163.0,7445.14208984375
164.0,7466.32177734375
165.0,7494.93408203125
166.0,7535.1572265625
167.0,7592.68408203125
168.0,7670.12060546875
169.0,7765.25244140625
170.0,7873.3203125
171.0,7990.640625
172.0,8115.93798828125
173.0,8248.12890625
174.0,8382.8466796875
175.0,8511.0009765625
176.0,8620.75390625
177.0,8701.09765625
178.0,8744.3203125
179.0,8746.0546875
180.0,8704.0537109375
181.0,8617.5927734375
182.0,8488.166015625
183.0,8320.474609375
184.0,8122.302734375
185.0,7902.93017578125
186.0,7671.13671875
187.0,7434.0078125
188.0,7196.94873046875
189.0,6964.3017578125
190.0,6739.78076171875
191.0,6526.4013671875
192.0,6326.14208984375
193.0,6139.6904296875
194.0,5966.4990234375
195.0,5805.21435546875
196.0,5654.41259765625
197.0,5513.36376953125
198.0,5382.30517578125
199.0,5261.87255859375
200.0,5151.9619140625
201.0,5050.9560546875
202.0,4956.10791015625
203.0,4864.923828125
204.0,4776.3916015625
205.0,4691.02392578125
206.0,4609.8369140625
207.0,4533.45556640625
208.0,4462.28173828125
209.0,4397.31689453125
210.0,4340.3076171875
211.0,4292.54052734375
212.0,4253.2158203125
213.0,4219.12353515625
214.0,4186.2548828125
215.0,4152.0673828125
216.0,4116.4599609375
217.0,4080.75048828125
218.0,4045.912109375
219.0,4011.819091796875
220.0,3978.0302734375
221.0,3945.006103515625
222.0,3914.442138671875
223.0,3888.471435546875
224.0,3868.587158203125
225.0,3855.056640625
226.0,3846.8583984375
227.0,3841.80078125
228.0,3836.8212890625
229.0,3828.80078125
230.0,3815.8203125
231.0,3798.11376953125
232.0,3777.923828125
233.0,3758.272216796875
234.0,3741.5322265625
235.0,3728.6171875
236.0,3718.95751953125
237.0,3710.912353515625
238.0,3702.4248046875
239.0,3691.9580078125
240.0,3679.4560546875
241.0,3666.60546875
242.0,3655.883056640625
243.0,3648.9208984375
244.0,3645.56884765625
245.0,3644.495849609375
246.0,3644.68505859375
247.0,3646.187744140625
248.0,3649.30859375
249.0,3653.08251953125
250.0,3654.809326171875
251.0,3651.384765625
252.0,3641.433349609375
253.0,3626.3876953125
254.0,3609.63525390625
255.0,3594.44677734375
256.0,3582.233642578125
257.0,3572.184326171875
258.0,3562.20361328125
259.0,3550.34814453125
260.0,3535.8583984375
261.0,3519.3173828125
262.0,3502.00146484375
263.0,3484.98388671875
264.0,3468.688720703125
265.0,3453.171142578125
266.0,3438.682861328125
267.0,3425.739990234375
268.0,3414.484375
269.0,3404.042236328125
270.0,3392.868896484375
271.0,3380.095458984375
272.0,3366.7080078125
273.0,3355.208740234375
274.0,3347.784912109375
275.0,3344.518798828125
276.0,3343.284423828125
277.0,3341.457763671875
278.0,3337.8701171875
279.0,3333.36083984375
280.0,3329.69384765625
281.0,3328.149658203125
282.0,3329.076904296875
283.0,3332.457763671875
284.0,3338.454345703125
285.0,3347.21435546875
286.0,3358.380615234375
287.0,3371.3154296875
288.0,3386.225341796875
289.0,3405.06787109375
290.0,3430.8955078125
291.0,3465.744140625
292.0,3508.89990234375
293.0,3557.477294921875
294.0,3609.3076171875
295.0,3665.73388671875
296.0,3731.711181640625
297.0,3812.829345703125
298.0,3911.86181640625
299.0,4028.004638671875
300.0,4159.6220703125
301.0,4308.13330078125
302.0,4479.71484375
303.0,4683.73974609375
304.0,4929.81005859375
305.0,5226.3408203125
306.0,5581.84716796875
307.0,6007.79052734375
308.0,6520.8994140625
309.0,7143.53662109375
310.0,7901.197265625
311.0,8815.7705078125
312.0,9893.6552734375
313.0,11110.7587890625
314.0,12400.654296875
315.0,13654.6171875
316.0,14738.296875
317.0,15521.4755859375
318.0,15910.4033203125
319.0,15869.8935546875
320.0,15427.9189453125
321.0,14663.2294921875
322.0,13682.162109375
323.0,12593.541015625
324.0,11489.1787109375
325.0,10434.0751953125
326.0,9466.671875
327.0,8605.4521484375
328.0,7856.6767578125
329.0,7219.58740234375
330.0,6688.5556640625
331.0,6254.0732421875
332.0,5904.2880859375
333.0,5627.08203125
334.0,5411.5712890625
335.0,5248.60205078125
336.0,5130.8466796875
337.0,5053.0791015625
338.0,5012.1767578125
339.0,5006.00927734375
340.0,5031.34033203125
341.0,5082.1396484375
342.0,5149.5439453125
343.0,5223.23193359375
344.0,5292.900390625
345.0,5348.9560546875
346.0,5382.84033203125
347.0,5387.7763671875
348.0,5359.86474609375
349.0,5298.60498046875
350.0,5206.396484375
351.0,5087.6630859375
352.0,4948.482421875
353.0,4796.587890625
354.0,4640.68701171875
355.0,4488.60595703125
356.0,4345.294921875
357.0,4212.341796875
358.0,4089.3935546875
359.0,3976.189697265625
360.0,3873.49658203125
361.0,3782.56591796875
362.0,3704.11767578125
363.0,3637.872802734375
364.0,3582.6630859375
365.0,3536.52587890625
366.0,3496.648193359375
367.0,3459.67578125
368.0,3422.705322265625
369.0,3384.37841796875
370.0,3345.12109375
371.0,3306.257080078125
372.0,3268.804931640625
373.0,3232.9892578125
374.0,3198.652099609375
375.0,3165.8486328125
376.0,3134.906494140625
377.0,3106.061279296875
378.0,3079.35009765625
379.0,3055.107177734375
380.0,3034.500244140625
381.0,3019.2412109375
382.0,3010.33984375
383.0,3006.90869140625
384.0,3006.306884765625
385.0,3005.8251953125
386.0,3004.710205078125
387.0,3004.897705078125
388.0,3009.94384765625
389.0,3023.143798828125
390.0,3046.202392578125
391.0,3078.97802734375
392.0,3119.803466796875
393.0,3165.888916015625
394.0,3213.989013671875
395.0,3261.646728515625
396.0,3308.52001953125
397.0,3356.64892578125
398.0,3409.12451171875
399.0,3468.08349609375
400.0,3533.712158203125
401.0,3605.010009765625
402.0,3681.560546875
403.0,3764.98046875
404.0,3859.421142578125
405.0,3971.36376953125
406.0,4109.04443359375
407.0,4281.60107421875
408.0,4498.2890625
409.0,4768.4560546875
410.0,5102.3671875
411.0,5511.32421875
412.0,6004.56787109375
413.0,6581.99755859375
414.0,7225.08935546875
415.0,7891.03759765625
416.0,8514.9482421875
417.0,9021.3955078125
418.0,9342.501953125
419.0,9436.650390625
420.0,9300.748046875
421.0,8970.9990234375
422.0,8511.6474609375
423.0,7996.2841796875
424.0,7489.59716796875
425.0,7036.45068359375
426.0,6660.25048828125
427.0,6367.89208984375
428.0,6156.72802734375
429.0,6020.068359375
430.0,5949.93994140625
431.0,5937.33642578125
432.0,5970.87646484375
433.0,6035.38671875
434.0,6111.9755859375
435.0,6180.13427734375
436.0,6220.7978515625
437.0,6218.55078125
438.0,6162.3154296875
439.0,6045.61865234375
440.0,5867.8330078125
441.0,5636.1650390625
442.0,5366.2734375
443.0,5079.60009765625
444.0,4797.72314453125
445.0,4536.47216796875
446.0,4303.01416015625
447.0,4097.11083984375
448.0,3915.109375
449.0,3753.863525390625
450.0,3612.37939453125
451.0,3490.96044921875
452.0,3389.336669921875
453.0,3305.56494140625
454.0,3236.431640625
455.0,3178.66748046875
456.0,3129.79296875
457.0,3088.115234375
458.0,3052.38671875
459.0,3021.822021484375
460.0,2996.454345703125
461.0,2977.150390625
462.0,2964.870849609375
463.0,2959.68505859375
464.0,2960.5029296875
465.0,2965.87646484375
466.0,2975.2314453125
467.0,2989.561767578125
468.0,3011.18359375
469.0,3042.869384765625
470.0,3086.784423828125
471.0,3143.427978515625
472.0,3210.84423828125
473.0,3284.70556640625
474.0,3359.683349609375
475.0,3431.49853515625
476.0,3498.137451171875
477.0,3559.129638671875
478.0,3613.53515625
479.0,3658.5419921875
480.0,3689.926025390625
481.0,3703.71337890625
482.0,3697.314697265625
483.0,3669.424072265625
484.0,3619.753173828125
485.0,3549.89501953125
486.0,3464.878662109375
487.0,3373.3095703125
488.0,3284.769287109375
489.0,3205.830078125
490.0,3137.796142578125
491.0,3078.045654296875
492.0,3023.5625
493.0,2973.3662109375
494.0,2927.989501953125
495.0,2887.277587890625
496.0,2849.392578125
497.0,2812.335205078125
498.0,2776.369140625
499.0,2744.64404296875
500.0,2721.06591796875
501.0,2707.271728515625
502.0,2701.48876953125
503.0,2700.195556640625
504.0,2700.84130859375
505.0,2703.032958984375
506.0,2707.314697265625
507.0,2713.247314453125
508.0,2719.136962890625
509.0,2723.905029296875
510.0,2729.077392578125
511.0,2738.43701171875
512.0,2755.279541015625
513.0,2779.897705078125
514.0,2809.970458984375
515.0,2843.650146484375
516.0,2882.240478515625
517.0,2929.7587890625
518.0,2990.050048828125
519.0,3064.743896484375
520.0,3154.381103515625
521.0,3261.393310546875
522.0,3391.285888671875
523.0,3549.809814453125
524.0,3737.429931640625
525.0,3944.653564453125
526.0,4151.146484375
527.0,4329.1611328125
528.0,4449.94287109375
529.0,4491.04150390625
530.0,4442.384765625
531.0,4309.16796875
532.0,4110.60498046875
533.0,3874.968017578125
534.0,3632.560546875
535.0,3408.731689453125
536.0,3218.92333984375
537.0,3067.198486328125
538.0,2948.619384765625
539.0,2854.2099609375
540.0,2775.942138671875
541.0,2709.393310546875
542.0,2653.546630859375
543.0,2608.9951171875
544.0,2576.138916015625
545.0,2554.111083984375
546.0,2540.5
547.0,2531.949462890625
548.0,2525.64697265625
549.0,2520.99072265625
550.0,2520.07470703125
551.0,2526.264404296875
552.0,2541.80810546875
553.0,2566.4794921875
554.0,2598.32568359375
555.0,2635.61962890625
556.0,2678.0537109375
557.0,2726.197265625
558.0,2780.2197265625
559.0,2839.67724609375
560.0,2904.869384765625
561.0,2978.26220703125
562.0,3064.051025390625
563.0,3165.8154296875
564.0,3284.493896484375
565.0,3418.80224609375
566.0,3567.629150390625
567.0,3731.663818359375
568.0,3912.267822265625
569.0,4108.76513671875
570.0,4317.15380859375
571.0,4531.5986328125
572.0,4746.9345703125
573.0,4959.42236328125
574.0,5165.2138671875
575.0,5358.72509765625
576.0,5533.34814453125
577.0,5684.669921875
578.0,5814.14208984375
579.0,5930.8720703125
580.0,6051.0126953125
581.0,6196.3896484375
582.0,6394.64697265625
583.0,6681.509765625
584.0,7103.8203125
585.0,7722.7568359375
586.0,8619.82421875
587.0,9906.5888671875
588.0,11726.46875
589.0,14221.42578125
590.0,17441.541015625
591.0,21217.458984375
592.0,25073.92578125
593.0,28279.65234375
594.0,30065.935546875
595.0,29931.05859375
596.0,27865.8515625
597.0,24362.94140625
598.0,20202.919921875
599.0,16146.146484375
600.0,12697.7275390625
601.0,10040.4677734375
602.0,8114.681640625
603.0,6752.56640625
604.0,5782.734375
605.0,5075.49169921875
606.0,4545.302734375
607.0,4138.22607421875
608.0,3820.26416015625
609.0,3569.412109375
610.0,3369.994873046875
611.0,3209.123291015625
612.0,3075.76220703125
613.0,2961.759521484375
614.0,2863.06298828125
615.0,2779.51806640625
616.0,2712.852783203125
617.0,2663.947998046875
618.0,2631.254150390625
619.0,2611.439697265625
620.0,2601.451904296875
621.0,2599.88134765625
622.0,2606.38330078125
623.0,2620.19677734375
624.0,2639.9189453125
625.0,2665.2265625
626.0,2698.65283203125
627.0,2744.6435546875
628.0,2805.190673828125
629.0,2874.697265625
630.0,2938.2685546875
631.0,2975.784912109375
632.0,2970.1708984375
633.0,2915.22021484375
634.0,2818.4384765625
635.0,2697.47705078125
636.0,2572.562744140625
637.0,2459.168701171875
638.0,2364.339111328125
639.0,2287.63525390625
640.0,2225.2431640625
641.0,2174.348876953125
642.0,2134.997314453125
643.0,2108.44921875
644.0,2093.752685546875
645.0,2085.845947265625
646.0,2077.341552734375
647.0,2062.862548828125
648.0,2042.2926025390625
649.0,2020.132568359375
650.0,2001.6053466796875
651.0,1988.8489990234373
652.0,1980.09912109375
653.0,1971.95166015625
654.0,1962.40771484375
655.0,1952.2586669921875
656.0,1944.0640869140625
657.0,1939.85498046875
658.0,1939.4552001953125
659.0,1940.7039794921875
660.0,1941.322998046875
661.0,1940.7640380859373
662.0,1940.290283203125
663.0,1941.15869140625
664.0,1942.7452392578125
665.0,1942.6898193359373
666.0,1939.1278076171875
667.0,1932.7816162109373
668.0,1926.6585693359373
669.0,1923.5341796875
670.0,1923.7171630859373
671.0,1925.222900390625
672.0,1925.878662109375
673.0,1925.0379638671875
674.0,1923.427490234375
675.0,1921.9066162109373
676.0,1920.864501953125
677.0,1920.703369140625
678.0,1922.2529296875
679.0,1926.0927734375
680.0,1931.3702392578125
681.0,1935.6339111328125
682.0,1936.3001708984373
683.0,1932.654541015625
684.0,1926.6265869140625
685.0,1921.595947265625
686.0,1920.1585693359373
687.0,1922.61279296875
688.0,1927.270263671875
689.0,1932.1453857421875
690.0,1936.4296875
691.0,1940.5150146484373
692.0,1944.8905029296875
693.0,1949.3663330078125
694.0,1953.456298828125
695.0,1957.1358642578125
696.0,1960.7158203125
697.0,1963.939453125
698.0,1965.7578125
699.0,1965.5322265625
700.0,1964.3858642578125
701.0,1964.8094482421875
702.0,1968.5355224609373
703.0,1974.8536376953125
704.0,1981.203369140625
705.0,1985.4541015625
706.0,1987.63671875
707.0,1989.6854248046875
708.0,1993.707275390625
709.0,2000.2974853515625
710.0,2008.0306396484373
711.0,2014.3619384765625
712.0,2017.3685302734373
713.0,2017.0966796875
714.0,2015.3375244140625
715.0,2013.971435546875
716.0,2013.6268310546875
717.0,2014.2239990234373
718.0,2016.68798828125
719.0,2023.33984375
720.0,2035.818603515625
721.0,2052.62451171875
722.0,2069.4814453125
723.0,2082.8857421875
724.0,2093.470947265625
725.0,2105.582275390625
726.0,2123.206787109375
727.0,2146.14111328125
728.0,2170.054443359375
729.0,2190.293212890625
730.0,2205.842041015625
731.0,2219.940673828125
732.0,2237.068359375
733.0,2259.17138671875
734.0,2284.4794921875
735.0,2309.814453125
736.0,2334.19482421875
737.0,2360.460205078125
738.0,2393.462646484375
739.0,2436.4404296875
740.0,2488.771240234375
741.0,2547.01611328125
742.0,2608.255615234375
743.0,2672.794189453125
744.0,2744.054443359375
745.0,2826.06103515625
746.0,2920.806884765625
747.0,3027.309814453125
748.0,3142.158203125
749.0,3260.2294921875
750.0,3375.1845703125
751.0,3480.65576171875
752.0,3572.540283203125
753.0,3650.88916015625
754.0,3719.30029296875
755.0,3781.954345703125
756.0,3841.127685546875
757.0,3897.747314453125
758.0,3954.217529296875
759.0,4016.158935546875
760.0,4090.841796875
761.0,4183.58837890625
762.0,4295.3564453125
763.0,4423.34423828125
764.0,4563.5986328125
765.0,4713.19287109375
766.0,4870.560546875
767.0,5034.77587890625
768.0,5205.8759765625
769.0,5387.36083984375
770.0,5589.52001953125
771.0,5830.65625
772.0,6134.751953125
773.0,6527.390625
774.0,7033.26953125
775.0,7676.3994140625
776.0,8480.4248046875
777.0,9465.2861328125
778.0,10638.5986328125
779.0,11983.44921875
780.0,13446.9130859375
781.0,14935.3662109375
782.0,16322.646484375
783.0,17473.287109375
784.0,18275.369140625
785.0,18670.97265625
786.0,18672.173828125
787.0,18357.046875
788.0,17848.05859375
789.0,17279.966796875
790.0,16766.05078125
791.0,16372.0390625
792.0,16105.7138671875
793.0,15925.298828125
794.0,15762.1259765625
795.0,15547.421875
796.0,15232.8076171875
797.0,14799.2177734375
798.0,14255.5576171875
799.0,13632.3740234375
800.0,12974.9521484375
801.0,12336.4638671875
802.0,11769.5361328125
803.0,11316.5634765625
804.0,11002.884765625
805.0,10837.4326171875
806.0,10820.7646484375
807.0,10954.6630859375
808.0,11245.921875
809.0,11700.7998046875
810.0,12312.755859375
811.0,13050.6279296875
812.0,13854.8916015625
813.0,14645.4580078125
814.0,15337.9228515625
815.0,15860.9296875
816.0,16168.564453125
817.0,16245.9228515625
818.0,16108.2587890625
819.0,15793.6875
820.0,15350.4423828125
821.0,14823.6845703125
822.0,14248.6572265625
823.0,13652.1455078125
824.0,13056.9296875
825.0,12482.814453125
826.0,11944.1728515625
827.0,11449.12109375
828.0,11003.009765625
829.0,10612.794921875
830.0,10287.5439453125
831.0,10035.1640625
832.0,9859.3837890625
833.0,9759.3857421875
834.0,9730.2509765625
835.0,9761.51171875
836.0,9834.3720703125
837.0,9920.8642578125
838.0,9986.9619140625
839.0,9998.068359375
840.0,9923.7197265625
841.0,9740.712890625
842.0,9436.9052734375
843.0,9017.0283203125
844.0,8506.951171875
845.0,7950.12109375
846.0,7394.6904296875
847.0,6878.4365234375
848.0,6421.20751953125
849.0,6027.47705078125
850.0,5692.99365234375
851.0,5409.29833984375
852.0,5166.3486328125
853.0,4956.240234375
854.0,4776.48828125
855.0,4628.16357421875
856.0,4509.34033203125
857.0,4411.42724609375
858.0,4323.68994140625
859.0,4241.044921875
860.0,4165.6416015625
861.0,4100.57666015625
862.0,4044.0263671875
863.0,3990.899658203125
864.0,3938.907470703125
865.0,3890.704833984375
866.0,3849.67626953125
867.0,3815.06787109375
868.0,3782.093017578125
869.0,3746.044677734375
870.0,3705.61181640625
871.0,3662.89794921875
872.0,3621.195068359375
873.0,3582.271240234375
874.0,3544.394775390625
875.0,3502.56640625
876.0,3451.841796875
877.0,3391.74462890625
878.0,3327.649169921875
879.0,3267.30810546875
880.0,3215.53076171875
881.0,3171.719970703125
882.0,3131.7216796875
883.0,3091.459716796875
884.0,3049.33154296875
885.0,3006.53955078125
886.0,2966.12646484375
887.0,2931.424560546875
888.0,2904.38818359375
889.0,2884.564453125
890.0,2869.41552734375
891.0,2855.85302734375
892.0,2841.942626953125
893.0,2827.645263671875
894.0,2814.175048828125
895.0,2802.615478515625
896.0,2793.136474609375
897.0,2785.65966796875
898.0,2781.173583984375
899.0,2781.879150390625
900.0,2789.506591796875
901.0,2803.46484375
902.0,2820.973388671875
903.0,2839.161865234375
904.0,2856.974853515625
905.0,2875.174560546875
906.0,2894.972412109375
907.0,2917.008544921875
908.0,2941.5615234375
909.0,2969.505859375
910.0,3002.991455078125
911.0,3045.1103515625
912.0,3098.625732421875
913.0,3164.883056640625
914.0,3244.31640625
915.0,3338.498046875
916.0,3451.566650390625
917.0,3588.76708984375
918.0,3752.394287109375
919.0,3937.92578125
920.0,4132.93408203125
921.0,4319.3330078125
922.0,4478.099609375
923.0,4595.23779296875
924.0,4667.00537109375
925.0,4701.724609375
926.0,4716.724609375
927.0,4732.24462890625
928.0,4766.23974609375
929.0,4832.7197265625
930.0,4942.958984375
931.0,5106.96337890625
932.0,5333.2216796875
933.0,5626.658203125
934.0,5986.14208984375
935.0,6403.03564453125
936.0,6861.2392578125
937.0,7338.26513671875
938.0,7807.59521484375
939.0,8243.861328125
940.0,8631.2109375
941.0,8970.9111328125
942.0,9281.6064453125
943.0,9589.5888671875
944.0,9914.0986328125
945.0,10256.2841796875
946.0,10596.845703125
947.0,10901.7685546875
948.0,11133.3193359375
949.0,11263.2333984375
950.0,11283.68359375
951.0,11211.3251953125
952.0,11083.658203125
953.0,10951.5830078125
954.0,10870.4453125
955.0,10886.060546875
956.0,11013.083984375
957.0,11214.513671875
958.0,11400.6328125
959.0,11458.2119140625
960.0,11298.900390625
961.0,10899.158203125
962.0,10308.5556640625
963.0,9624.3271484375
964.0,8950.138671875
965.0,8362.298828125
966.0,7896.9462890625
967.0,7556.357421875
968.0,7322.83642578125
969.0,7169.77587890625
970.0,7067.77099609375
971.0,6989.5859375
972.0,6916.06201171875
973.0,6839.9853515625
974.0,6764.1259765625
975.0,6694.369140625
976.0,6632.99560546875
977.0,6576.22412109375
978.0,6516.263671875
979.0,6445.69482421875
980.0,6361.80419921875
981.0,6268.95361328125
982.0,6177.9794921875
983.0,6103.39501953125
984.0,6060.19970703125
985.0,6060.91748046875
986.0,6112.03857421875
987.0,6210.26708984375
988.0,6341.17041015625
989.0,6481.83203125
990.0,6605.36669921875
991.0,6684.36572265625
992.0,6694.10498046875
993.0,6618.46142578125
994.0,6457.0703125
995.0,6227.01611328125
996.0,5955.23974609375
997.0,5667.02734375
998.0,5379.76953125
999.0,5104.32861328125
1000.0,4847.9111328125
1001.0,4613.28369140625
1002.0,4396.96630859375
1003.0,4191.896484375
1004.0,3993.90185546875
1005.0,3805.2109375
1006.0,3631.204833984375
1007.0,3474.795166015625
1008.0,3335.252685546875
1009.0,3211.854248046875
1010.0,3106.293701171875
1011.0,3019.958984375
1012.0,2949.687744140625
1013.0,2888.123291015625
1014.0,2828.9345703125
1015.0,2770.930419921875
1016.0,2716.746826171875
1017.0,2668.626220703125
1018.0,2626.578125
1019.0,2589.904296875
1020.0,2558.512939453125
1021.0,2531.767822265625
1022.0,2507.019287109375
1023.0,2480.702392578125
1024.0,2451.200439453125
1025.0,2420.149658203125
1026.0,2390.85107421875
1027.0,2365.81298828125
1028.0,2345.78662109375
1029.0,2330.275634765625
1030.0,2318.07177734375
