Butyl Acetate
cm^-1,Intensity
150.0,15586.478515625
151.0,15466.42578125
152.0,15365.6181640625
153.0,15277.5205078125
154.0,15191.9208984375
155.0,15098.595703125
156.0,14990.6806640625
157.0,14868.03125
158.0,14739.0771484375
159.0,14618.3203125
160.0,14518.6337890625
161.0,14442.705078125
162.0,14380.58203125
163.0,14316.5234375
164.0,14240.654296875
165.0,14156.068359375
166.0,14075.525390625
167.0,14010.3427734375
168.0,13960.8759765625
169.0,13916.0693359375
170.0,13862.01953125
171.0,13791.9609375
172.0,13710.126953125
173.0,13627.5791015625
174.0,13554.876953125
175.0,13497.552734375
176.0,13456.427734375
177.0,13429.935546875
178.0,13414.853515625
179.0,13405.037109375
180.0,13391.0751953125
181.0,13363.2734375
182.0,13316.88671875
183.0,13255.5078125
184.0,13189.638671875
185.0,13131.1240234375
186.0,13087.3828125
187.0,13058.935546875
188.0,13041.0029296875
189.0,13027.2666015625
190.0,13013.1904296875
191.0,12997.3994140625
192.0,12980.931640625
193.0,12965.349609375
194.0,12951.15625
195.0,12937.7060546875
196.0,12924.5712890625
197.0,12912.96484375
198.0,12905.58984375
199.0,12904.7822265625
200.0,12910.5498046875
201.0,12920.263671875
202.0,12930.056640625
203.0,12936.4892578125
204.0,12937.302734375
205.0,12931.6796875
206.0,12920.9453125
207.0,12909.3486328125
208.0,12903.2275390625
209.0,12907.8515625
210.0,12923.88671875
211.0,12946.7919921875
212.0,12970.09375
213.0,12989.830078125
214.0,13006.0830078125
215.0,13020.599609375
216.0,13033.4892578125
217.0,13042.81640625
218.0,13047.4521484375
219.0,13049.8271484375
220.0,13055.125
221.0,13067.189453125
222.0,13084.857421875
223.0,13102.228515625
224.0,13112.8740234375
225.0,13114.625
226.0,13111.349609375
227.0,13110.396484375
228.0,13117.58203125
229.0,13132.962890625
230.0,13150.2978515625
231.0,13160.73828125
232.0,13158.5654296875
233.0,13145.140625
234.0,13128.0888671875
235.0,13116.24609375
236.0,13114.021484375
237.0,13119.3974609375
238.0,13126.6494140625
239.0,13131.2353515625
240.0,13132.8974609375
241.0,13135.1220703125
242.0,13142.11328125
243.0,13155.966796875
244.0,13175.8388671875
245.0,13199.0205078125
246.0,13222.7939453125
247.0,13245.8603515625
248.0,13268.73046875
249.0,13293.0
250.0,13319.962890625
251.0,13349.49609375
252.0,13380.0517578125
253.0,13409.880859375
254.0,13438.5
255.0,13467.126953125
256.0,13497.484375
257.0,13529.88671875
258.0,13562.314453125
259.0,13591.5361328125
260.0,13615.576171875
261.0,13635.3544921875
262.0,13653.8447265625
263.0,13673.30859375
264.0,13693.2744140625
265.0,13711.40234375
266.0,13726.5009765625
267.0,13740.41015625
268.0,13756.337890625
269.0,13775.0390625
270.0,13793.0419921875
271.0,13805.34375
272.0,13810.2138671875
273.0,13811.0263671875
274.0,13812.7861328125
275.0,13816.8310546875
276.0,13819.36328125
277.0,13815.8115234375
278.0,13806.75
279.0,13799.50390625
280.0,13803.7021484375
281.0,13824.9169921875
282.0,13861.6943359375
283.0,13907.5400390625
284.0,13955.18359375
285.0,13999.78515625
286.0,14040.1787109375
287.0,14078.9365234375
288.0,14121.62890625
289.0,14174.87890625
290.0,14243.623046875
291.0,14329.5009765625
292.0,14431.802734375
293.0,14549.9033203125
294.0,14684.521484375
295.0,14836.6044921875
296.0,15005.74609375
297.0,15190.7333984375
298.0,15392.0595703125
299.0,15613.13671875
300.0,15857.5810546875
301.0,16123.8486328125
302.0,16401.697265625
303.0,16673.443359375
304.0,16918.759765625
305.0,17119.15234375
306.0,17259.841796875
307.0,17330.3046875
308.0,17325.876953125
309.0,17250.349609375
310.0,17116.75
311.0,16943.85546875
312.0,16749.82421875
313.0,16547.578125
314.0,16345.4150390625
315.0,16151.65625
316.0,15978.1787109375
317.0,15838.578125
318.0,15741.8623046875
319.0,15687.1015625
320.0,15664.078125
321.0,15659.6572265625
322.0,15664.8515625
323.0,15677.1494140625
324.0,15697.244140625
325.0,15723.9404296875
326.0,15751.6806640625
327.0,15772.064453125
328.0,15777.19140625
329.0,15762.1083984375
330.0,15725.369140625
331.0,15668.5185546875
332.0,15595.40234375
333.0,15511.4248046875
334.0,15422.529296875
335.0,15334.0966796875
336.0,15250.109375
337.0,15172.6923828125
338.0,15101.8203125
339.0,15035.2431640625
340.0,14968.939453125
341.0,14898.2080078125
342.0,14818.84375
343.0,14727.8681640625
344.0,14623.9931640625
345.0,14508.4853515625
346.0,14386.341796875
347.0,14266.439453125
348.0,14159.2060546875
349.0,14072.263671875
350.0,14006.76171875
351.0,13957.166015625
352.0,13914.8671875
353.0,13873.0283203125
354.0,13829.373046875
355.0,13785.7548828125
356.0,13745.8134765625
357.0,13712.8408203125
358.0,13688.7060546875
359.0,13673.4345703125
360.0,13665.1630859375
361.0,13660.9384765625
362.0,13658.5771484375
363.0,13658.3427734375
364.0,13662.4794921875
365.0,13672.3125
366.0,13685.494140625
367.0,13696.5810546875
368.0,13701.3359375
369.0,13700.9521484375
370.0,13701.927734375
371.0,13711.0478515625
372.0,13729.791015625
373.0,13753.142578125
374.0,13773.607421875
375.0,13786.634765625
376.0,13792.8994140625
377.0,13796.396484375
378.0,13800.982421875
379.0,13808.3583984375
380.0,13818.3310546875
381.0,13830.0693359375
382.0,13842.958984375
383.0,13856.646484375
384.0,13870.525390625
385.0,13883.123046875
386.0,13892.021484375
387.0,13894.98046875
388.0,13892.0107421875
389.0,13886.73828125
390.0,13885.236328125
391.0,13892.3681640625
392.0,13908.30859375
393.0,13928.3408203125
394.0,13946.3955078125
395.0,13959.5712890625
396.0,13969.96875
397.0,13982.564453125
398.0,14001.0712890625
399.0,14024.9560546875
400.0,14049.494140625
401.0,14068.38671875
402.0,14077.1513671875
403.0,14075.5341796875
404.0,14067.849609375
405.0,14061.068359375
406.0,14061.40625
407.0,14071.07421875
408.0,14087.21875
409.0,14103.9970703125
410.0,14116.646484375
411.0,14124.7998046875
412.0,14132.6865234375
413.0,14146.302734375
414.0,14170.1083984375
415.0,14205.84765625
416.0,14253.744140625
417.0,14313.8056640625
418.0,14385.107421875
419.0,14463.7080078125
420.0,14542.14453125
421.0,14612.498046875
422.0,14671.24609375
423.0,14721.662109375
424.0,14771.111328125
425.0,14825.087890625
426.0,14882.8759765625
427.0,14938.16015625
428.0,14983.587890625
429.0,15015.216796875
430.0,15033.50390625
431.0,15040.8349609375
432.0,15038.115234375
433.0,15023.1123046875
434.0,14991.5927734375
435.0,14940.42578125
436.0,14870.7490234375
437.0,14789.1279296875
438.0,14705.65234375
439.0,14629.880859375
440.0,14567.1689453125
441.0,14517.7431640625
442.0,14478.728515625
443.0,14447.0009765625
444.0,14420.52734375
445.0,14397.7978515625
446.0,14376.9501953125
447.0,14356.1875
448.0,14335.337890625
449.0,14316.8564453125
450.0,14304.7958984375
451.0,14301.96875
452.0,14307.259765625
453.0,14315.2333984375
454.0,14318.859375
455.0,14313.8359375
456.0,14301.3291015625
457.0,14286.736328125
458.0,14275.2275390625
459.0,14267.861328125
460.0,14261.8740234375
461.0,14254.7353515625
462.0,14247.67578125
463.0,14244.888671875
464.0,14249.2470703125
465.0,14259.3583984375
466.0,14271.23828125
467.0,14282.7177734375
468.0,14295.6865234375
469.0,14313.8828125
470.0,14339.0673828125
471.0,14369.7880859375
472.0,14403.4365234375
473.0,14438.3740234375
474.0,14473.470703125
475.0,14506.3544921875
476.0,14533.5439453125
477.0,14553.02734375
478.0,14566.1630859375
479.0,14576.0751953125
480.0,14583.9453125
481.0,14587.3701171875
482.0,14582.7861328125
483.0,14569.109375
484.0,14548.2353515625
485.0,14521.7578125
486.0,14487.853515625
487.0,14442.423828125
488.0,14383.9091796875
489.0,14317.0859375
490.0,14252.0087890625
491.0,14198.8740234375
492.0,14163.05859375
493.0,14143.7451171875
494.0,14135.8466796875
495.0,14132.7822265625
496.0,14128.2705078125
497.0,14117.2373046875
498.0,14096.537109375
499.0,14065.474609375
500.0,14025.5751953125
501.0,13979.66015625
502.0,13930.9765625
503.0,13882.8046875
504.0,13837.9736328125
505.0,13797.7216796875
506.0,13760.529296875
507.0,13722.3955078125
508.0,13678.9404296875
509.0,13627.6630859375
510.0,13568.19140625
511.0,13500.4501953125
512.0,13423.171875
513.0,13334.9990234375
514.0,13237.328125
515.0,13135.6259765625
516.0,13037.08203125
517.0,12946.3818359375
518.0,12863.6708984375
519.0,12786.62109375
520.0,12714.2890625
521.0,12648.623046875
522.0,12592.1181640625
523.0,12544.2919921875
524.0,12500.7724609375
525.0,12455.921875
526.0,12406.408203125
527.0,12352.501953125
528.0,12296.59375
529.0,12241.0322265625
530.0,12187.486328125
531.0,12137.892578125
532.0,12095.2138671875
533.0,12062.4931640625
534.0,12040.599609375
535.0,12026.5888671875
536.0,12014.541015625
537.0,11998.822265625
538.0,11977.52734375
539.0,11953.2978515625
540.0,11930.6318359375
541.0,11911.859375
542.0,11895.3955078125
543.0,11877.787109375
544.0,11857.345703125
545.0,11835.623046875
546.0,11815.3779296875
547.0,11797.5234375
548.0,11780.4912109375
549.0,11762.44921875
550.0,11743.58203125
551.0,11725.859375
552.0,11710.95703125
553.0,11699.0146484375
554.0,11689.431640625
555.0,11682.1015625
556.0,11677.2099609375
557.0,11674.0634765625
558.0,11671.0166015625
559.0,11667.009765625
560.0,11662.662109375
561.0,11658.982421875
562.0,11654.7578125
563.0,11645.9599609375
564.0,11628.83203125
565.0,11604.2900390625
566.0,11579.283203125
567.0,11563.0693359375
568.0,11560.763671875
569.0,11569.1376953125
570.0,11578.169921875
571.0,11577.5908203125
572.0,11563.8076171875
573.0,11542.1005859375
574.0,11522.4052734375
575.0,11512.119140625
576.0,11511.736328125
577.0,11516.2958984375
578.0,11520.396484375
579.0,11521.884765625
580.0,11521.6220703125
581.0,11521.03125
582.0,11520.46484375
583.0,11519.2587890625
584.0,11516.3623046875
585.0,11510.939453125
586.0,11503.572265625
587.0,11497.70703125
588.0,11499.0869140625
589.0,11511.8623046875
590.0,11534.1748046875
591.0,11558.2509765625
592.0,11576.43359375
593.0,11587.9970703125
594.0,11599.984375
595.0,11620.97265625
596.0,11653.8076171875
597.0,11694.1708984375
598.0,11735.779296875
599.0,11776.7880859375
600.0,11821.7861328125
601.0,11878.4775390625
602.0,11952.3466796875
603.0,12042.958984375
604.0,12143.3857421875
605.0,12242.2080078125
606.0,12326.771484375
607.0,12386.41796875
608.0,12414.814453125
609.0,12411.181640625
610.0,12380.66015625
611.0,12333.6025390625
612.0,12283.16015625
613.0,12241.216796875
614.0,12214.6279296875
615.0,12204.4921875
616.0,12209.30078125
617.0,12229.3759765625
618.0,12268.716796875
619.0,12332.8896484375
620.0,12425.7333984375
621.0,12549.224609375
622.0,12708.00390625
623.0,12915.392578125
624.0,13195.39453125
625.0,13577.509765625
626.0,14085.9580078125
627.0,14728.2548828125
628.0,15487.7724609375
629.0,16321.978515625
630.0,17165.61328125
631.0,17938.150390625
632.0,18556.189453125
633.0,18950.861328125
634.0,19086.5390625
635.0,18972.814453125
636.0,18661.94140625
637.0,18230.904296875
638.0,17756.263671875
639.0,17293.796875
640.0,16870.283203125
641.0,16486.640625
642.0,16126.841796875
643.0,15768.5361328125
644.0,15393.939453125
645.0,14999.041015625
646.0,14596.833984375
647.0,14211.4619140625
648.0,13866.0869140625
649.0,13572.2939453125
650.0,13327.302734375
651.0,13118.728515625
652.0,12931.9130859375
653.0,12755.6533203125
654.0,12585.1982421875
655.0,12422.6064453125
656.0,12274.134765625
657.0,12145.43359375
658.0,12037.7802734375
659.0,11948.4609375
660.0,11874.4619140625
661.0,11815.1025390625
662.0,11770.6982421875
663.0,11739.248046875
664.0,11715.3984375
665.0,11692.98046875
666.0,11668.396484375
667.0,11642.01171875
668.0,11617.451171875
669.0,11600.0654296875
670.0,11594.5732421875
671.0,11601.552734375
672.0,11614.9130859375
673.0,11624.0859375
674.0,11621.1708984375
675.0,11607.369140625
676.0,11592.013671875
677.0,11584.3486328125
678.0,11585.8916015625
679.0,11590.7783203125
680.0,11592.8544921875
681.0,11591.2451171875
682.0,11588.8125
683.0,11586.6640625
684.0,11582.24609375
685.0,11573.58984375
686.0,11564.2666015625
687.0,11562.3515625
688.0,11573.552734375
689.0,11595.4345703125
690.0,11618.654296875
691.0,11633.998046875
692.0,11638.7275390625
693.0,11637.2705078125
694.0,11636.890625
695.0,11642.4912109375
696.0,11654.0302734375
697.0,11667.279296875
698.0,11676.8427734375
699.0,11679.607421875
700.0,11676.611328125
701.0,11671.998046875
702.0,11669.791015625
703.0,11671.1640625
704.0,11674.478515625
705.0,11677.68359375
706.0,11680.5830078125
707.0,11685.021484375
708.0,11693.2763671875
709.0,11706.17578125
710.0,11722.02734375
711.0,11736.7998046875
712.0,11745.841796875
713.0,11746.8779296875
714.0,11742.3662109375
715.0,11738.65234375
716.0,11741.521484375
717.0,11751.47265625
718.0,11763.13671875
719.0,11769.8017578125
720.0,11769.333984375
721.0,11766.4931640625
722.0,11769.8984375
723.0,11786.08203125
724.0,11814.80859375
725.0,11848.6611328125
726.0,11877.3779296875
727.0,11894.6142578125
728.0,11902.6533203125
729.0,11911.1533203125
730.0,11930.2890625
731.0,11963.548828125
732.0,12005.91015625
733.0,12047.9814453125
734.0,12081.4599609375
735.0,12101.5361328125
736.0,12106.716796875
737.0,12099.0869140625
738.0,12085.2080078125
739.0,12074.4482421875
740.0,12073.5400390625
741.0,12081.8359375
742.0,12092.9228515625
743.0,12101.9677734375
744.0,12111.201171875
745.0,12127.2041015625
746.0,12152.6103515625
747.0,12181.373046875
748.0,12203.205078125
749.0,12212.9921875
750.0,12215.6669921875
751.0,12221.7177734375
752.0,12237.7568359375
753.0,12260.8583984375
754.0,12281.373046875
755.0,12291.2392578125
756.0,12290.716796875
757.0,12288.4609375
758.0,12295.2900390625
759.0,12316.3935546875
760.0,12347.517578125
761.0,12377.861328125
762.0,12397.71875
763.0,12405.40234375
764.0,12408.2880859375
765.0,12417.2587890625
766.0,12438.9677734375
767.0,12471.83203125
768.0,12508.2783203125
769.0,12540.765625
770.0,12566.8310546875
771.0,12589.9345703125
772.0,12616.1591796875
773.0,12649.2626953125
774.0,12687.4921875
775.0,12724.552734375
776.0,12754.341796875
777.0,12775.8291015625
778.0,12794.001953125
779.0,12816.2734375
780.0,12847.978515625
781.0,12890.8212890625
782.0,12944.1474609375
783.0,13005.9306640625
784.0,13072.140625
785.0,13136.982421875
786.0,13196.5
787.0,13253.3427734375
788.0,13317.2333984375
789.0,13398.751953125
790.0,13500.8447265625
791.0,13615.40234375
792.0,13727.986328125
793.0,13826.869140625
794.0,13909.6806640625
795.0,13983.7626953125
796.0,14061.259765625
797.0,14152.9111328125
798.0,14264.419921875
799.0,14396.818359375
800.0,14548.865234375
801.0,14717.5556640625
802.0,14894.9599609375
803.0,15064.8447265625
804.0,15205.0576171875
805.0,15296.919921875
806.0,15334.814453125
807.0,15327.3408203125
808.0,15289.224609375
809.0,15232.072265625
810.0,15161.6865234375
811.0,15081.2421875
812.0,14994.2939453125
813.0,14904.9716796875
814.0,14817.9169921875
815.0,14739.482421875
816.0,14677.5107421875
817.0,14637.9375
818.0,14622.1064453125
819.0,14629.255859375
820.0,14661.35546875
821.0,14722.794921875
822.0,14814.060546875
823.0,14928.30078125
824.0,15057.5869140625
825.0,15202.3505859375
826.0,15370.9873046875
827.0,15567.8505859375
828.0,15783.6796875
829.0,16001.9228515625
830.0,16216.8310546875
831.0,16445.30859375
832.0,16720.392578125
833.0,17071.650390625
834.0,17507.125
835.0,18005.5859375
836.0,18518.087890625
837.0,18975.251953125
838.0,19300.1640625
839.0,19427.302734375
840.0,19322.76171875
841.0,18996.595703125
842.0,18500.490234375
843.0,17911.71875
844.0,17311.328125
845.0,16765.61328125
846.0,16316.0224609375
847.0,15977.53515625
848.0,15742.8837890625
849.0,15590.12890625
850.0,15491.6962890625
851.0,15422.3837890625
852.0,15363.2802734375
853.0,15300.6484375
854.0,15222.93359375
855.0,15120.64453125
856.0,14990.267578125
857.0,14838.015625
858.0,14678.408203125
859.0,14527.7001953125
860.0,14397.0810546875
861.0,14290.1796875
862.0,14205.03515625
863.0,14137.79296875
864.0,14085.8876953125
865.0,14049.73046875
866.0,14032.2138671875
867.0,14035.974609375
868.0,14060.3232421875
869.0,14100.7490234375
870.0,14151.82421875
871.0,14211.087890625
872.0,14280.708984375
873.0,14365.7958984375
874.0,14470.525390625
875.0,14594.251953125
876.0,14729.796875
877.0,14865.3330078125
878.0,14988.9296875
879.0,15092.3671875
880.0,15171.31640625
881.0,15222.6435546875
882.0,15242.55078125
883.0,15228.126953125
884.0,15181.1962890625
885.0,15110.8603515625
886.0,15031.625
887.0,14956.974609375
888.0,14892.421875
889.0,14834.4833984375
890.0,14778.30078125
891.0,14727.703125
892.0,14696.6923828125
893.0,14698.9345703125
894.0,14735.4658203125
895.0,14794.220703125
896.0,14862.1884765625
897.0,14936.759765625
898.0,15024.4833984375
899.0,15130.5068359375
900.0,15251.541015625
901.0,15378.7236328125
902.0,15504.486328125
903.0,15625.0380859375
904.0,15738.169921875
905.0,15842.2890625
906.0,15939.2177734375
907.0,16036.400390625
908.0,16143.96484375
909.0,16268.83984375
910.0,16412.5
911.0,16574.40625
912.0,16755.33203125
913.0,16954.44140625
914.0,17162.720703125
915.0,17361.771484375
916.0,17531.451171875
917.0,17658.744140625
918.0,17738.80859375
919.0,17769.634765625
920.0,17749.53125
921.0,17680.478515625
922.0,17570.02734375
923.0,17426.0859375
924.0,17250.60546875
925.0,17041.69921875
926.0,16802.615234375
927.0,16546.052734375
928.0,16288.349609375
929.0,16041.2607421875
930.0,15810.765625
931.0,15601.3447265625
932.0,15417.5634765625
933.0,15261.1904296875
934.0,15129.9296875
935.0,15021.0517578125
936.0,14935.013671875
937.0,14873.9326171875
938.0,14837.4619140625
939.0,14822.2431640625
940.0,14825.498046875
941.0,14847.26953125
942.0,14887.9951171875
943.0,14944.6875
944.0,15010.6025390625
945.0,15078.5263671875
946.0,15143.7958984375
947.0,15204.6552734375
948.0,15260.984375
949.0,15312.8564453125
950.0,15358.5107421875
951.0,15391.681640625
952.0,15401.302734375
953.0,15377.03515625
954.0,15318.4501953125
955.0,15239.337890625
956.0,15160.875
957.0,15098.34765625
958.0,15053.9208984375
959.0,15021.978515625
960.0,14999.513671875
961.0,14988.7802734375
962.0,14989.9052734375
963.0,14994.447265625
964.0,14990.078125
965.0,14972.1640625
966.0,14948.2314453125
967.0,14928.87109375
968.0,14914.87109375
969.0,14895.62890625
970.0,14861.27734375
971.0,14814.896484375
972.0,14770.4892578125
973.0,14738.3994140625
974.0,14714.3408203125
975.0,14684.310546875
976.0,14639.919921875
977.0,14587.412109375
978.0,14541.3720703125
979.0,14511.0556640625
980.0,14493.86328125
981.0,14481.1357421875
982.0,14468.4619140625
983.0,14459.984375
984.0,14463.7841796875
985.0,14483.6455078125
986.0,14514.513671875
987.0,14545.38671875
988.0,14567.6923828125
989.0,14582.630859375
990.0,14601.1611328125
991.0,14636.2255859375
992.0,14693.734375
993.0,14769.3701171875
994.0,14852.013671875
995.0,14929.076171875
996.0,14990.052734375
997.0,15028.783203125
998.0,15045.4208984375
999.0,15046.1748046875
1000.0,15038.7548828125
1001.0,15026.130859375
1002.0,15004.56640625
1003.0,14968.3740234375
1004.0,14916.8525390625
1005.0,14856.7080078125
1006.0,14798.3173828125
1007.0,14750.1591796875
1008.0,14715.9580078125
1009.0,14694.7978515625
1010.0,14682.080078125
1011.0,14670.982421875
1012.0,14655.859375
1013.0,14636.7509765625
1014.0,14620.8505859375
1015.0,14618.2294921875
1016.0,14635.0595703125
1017.0,14670.6396484375
1018.0,14720.4326171875
1019.0,14781.173828125
1020.0,14853.5107421875
1021.0,14941.9130859375
1022.0,15053.623046875
1023.0,15196.2080078125
1024.0,15372.7265625
1025.0,15577.650390625
1026.0,15798.56640625
1027.0,16022.517578125
1028.0,16238.5234375
1029.0,16431.845703125
1030.0,16578.345703125
1031.0,16651.064453125
1032.0,16637.48046875
1033.0,16550.458984375
1034.0,16420.3046875
1035.0,16276.015625
1036.0,16134.80859375
1037.0,16006.595703125
1038.0,15901.5166015625
1039.0,15828.4140625
1040.0,15787.9638671875
1041.0,15772.0693359375
1042.0,15770.7021484375
1043.0,15775.9306640625
1044.0,15778.205078125
1045.0,15763.548828125
1046.0,15720.6484375
1047.0,15652.240234375
1048.0,15576.5595703125
1049.0,15514.9560546875
1050.0,15477.6630859375
1051.0,15461.1513671875
1052.0,15457.4794921875
1053.0,15465.150390625
1054.0,15492.328125
1055.0,15551.50390625
1056.0,15650.6484375
1057.0,15787.2666015625
1058.0,15949.3017578125
