Dimethyl Sulfoxide
cm^-1,Intensity
150.0,226.98922729492188
151.0,227.9027404785156
152.0,230.1392974853516
153.0,232.11441040039065
154.0,232.23809814453125
155.0,229.8253936767578
156.0,225.27951049804688
157.0,219.66970825195312
158.0,214.19259643554688
159.0,209.84866333007807
160.0,207.28749084472656
161.0,206.6708526611328
162.0,207.58204650878903
163.0,209.1728057861328
164.0,210.6114044189453
165.0,211.5629425048828
166.0,212.31642150878903
167.0,213.41168212890625
168.0,215.0800018310547
169.0,216.976318359375
170.0,218.4293975830078
171.0,218.9395751953125
172.0,218.46334838867188
173.0,217.2662353515625
174.0,215.58099365234372
175.0,213.453125
176.0,210.89910888671875
177.0,208.126953125
178.0,205.52847290039065
179.0,203.4434356689453
180.0,201.9842834472656
181.0,201.12550354003903
182.0,200.9385986328125
183.0,201.6544952392578
184.0,203.42605590820312
185.0,206.0073699951172
186.0,208.70774841308597
187.0,210.7265472412109
188.0,211.629150390625
189.0,211.57421875
190.0,211.1203155517578
191.0,210.76153564453125
192.0,210.54736328125
193.0,210.06271362304688
194.0,208.7869415283203
195.0,206.5799865722656
196.0,203.93724060058597
197.0,201.80685424804688
198.0,201.0615692138672
199.0,201.990478515625
200.0,204.14874267578125
201.0,206.64923095703125
202.0,208.6471710205078
203.0,209.6884307861328
204.0,209.7511138916016
205.0,209.0621337890625
206.0,207.8878173828125
207.0,206.4348602294922
208.0,204.8785095214844
209.0,203.44869995117188
210.0,202.48355102539065
211.0,202.36756896972656
212.0,203.33676147460935
213.0,205.24366760253903
214.0,207.47918701171875
215.0,209.19137573242188
216.0,209.73085021972656
217.0,209.03244018554688
218.0,207.6405029296875
219.0,206.35333251953125
220.0,205.75027465820312
221.0,205.94613647460935
222.0,206.67919921875
223.0,207.565185546875
224.0,208.26531982421875
225.0,208.50010681152344
226.0,208.04269409179688
227.0,206.8258514404297
228.0,205.0995941162109
229.0,203.4354705810547
230.0,202.4628143310547
231.0,202.4929656982422
232.0,203.32521057128903
233.0,204.40740966796875
234.0,205.2255859375
235.0,205.62496948242188
236.0,205.8505859375
237.0,206.3193359375
238.0,207.30479431152344
239.0,208.71469116210935
240.0,210.0793609619141
241.0,210.778564453125
242.0,210.4327850341797
243.0,209.2377014160156
244.0,207.9552154541016
245.0,207.4633026123047
246.0,208.11822509765625
247.0,209.44081115722656
248.0,210.4320831298828
249.0,210.32298278808597
250.0,209.1570587158203
251.0,207.7379150390625
252.0,207.0160369873047
253.0,207.4325714111328
254.0,208.7162170410156
255.0,210.1817321777344
256.0,211.2141265869141
257.0,211.5790252685547
258.0,211.4469146728516
259.0,211.21974182128903
260.0,211.2832489013672
261.0,211.77554321289065
262.0,212.46441650390625
263.0,212.84169006347656
264.0,212.43235778808597
265.0,211.1289825439453
266.0,209.29249572753903
267.0,207.51876831054688
268.0,206.2577209472656
269.0,205.57595825195312
270.0,205.21224975585935
271.0,204.81727600097656
272.0,204.17462158203125
273.0,203.3057556152344
274.0,202.49185180664065
275.0,202.24310302734372
276.0,203.1480865478516
277.0,205.5439910888672
278.0,209.14002990722656
279.0,212.9021148681641
280.0,215.44723510742188
281.0,215.818359375
282.0,214.13314819335935
283.0,211.58712768554688
284.0,209.7105865478516
285.0,209.38787841796875
286.0,210.35284423828125
287.0,211.5509185791016
288.0,212.06878662109372
289.0,211.8917694091797
290.0,211.9138946533203
291.0,213.2288360595703
292.0,216.30593872070312
293.0,220.6662750244141
294.0,225.2377166748047
295.0,229.0327911376953
296.0,231.63665771484372
297.0,233.246826171875
298.0,234.36566162109372
299.0,235.44076538085935
300.0,236.66262817382807
301.0,237.9609222412109
302.0,239.12774658203125
303.0,239.97674560546875
304.0,240.46983337402344
305.0,240.75440979003903
306.0,241.0845489501953
307.0,241.6556854248047
308.0,242.43858337402344
309.0,243.11595153808597
310.0,243.17037963867188
311.0,242.09304809570312
312.0,239.61685180664065
313.0,235.8658142089844
314.0,231.36471557617188
315.0,226.91319274902344
316.0,223.3683319091797
317.0,221.38885498046875
318.0,221.2022857666016
319.0,222.4980010986328
320.0,224.55979919433597
321.0,226.6396331787109
322.0,228.3834228515625
323.0,229.99456787109372
324.0,231.9775238037109
325.0,234.65919494628903
326.0,237.9126892089844
327.0,241.3504180908203
328.0,244.7792816162109
329.0,248.43231201171875
330.0,252.6903839111328
331.0,257.5463562011719
332.0,262.3537292480469
333.0,266.1302490234375
334.0,268.1385803222656
335.0,268.2033996582031
336.0,266.5470886230469
337.0,263.4154663085937
338.0,258.91943359375
339.0,253.18814086914065
340.0,246.56207275390625
341.0,239.56382751464844
342.0,232.7035980224609
343.0,226.3686981201172
344.0,220.8790740966797
345.0,216.52674865722656
346.0,213.4333648681641
347.0,211.35128784179688
348.0,209.69505310058597
349.0,207.8800201416016
350.0,205.67819213867188
351.0,203.26223754882807
352.0,200.9364013671875
353.0,198.873291015625
354.0,197.0997772216797
355.0,195.6342010498047
356.0,194.52545166015625
357.0,193.745361328125
358.0,193.1361389160156
359.0,192.54151916503903
360.0,191.9658660888672
361.0,191.5179443359375
362.0,191.18179321289065
363.0,190.7295684814453
364.0,189.96505737304688
365.0,189.0506591796875
366.0,188.4990997314453
367.0,188.75665283203125
368.0,189.7908477783203
369.0,191.1305694580078
370.0,192.30767822265625
371.0,193.22537231445312
372.0,194.08822631835935
373.0,195.0469970703125
374.0,195.9961395263672
375.0,196.7283477783203
376.0,197.2280120849609
377.0,197.7665557861328
378.0,198.7316131591797
379.0,200.37945556640625
380.0,202.6871032714844
381.0,205.3119964599609
382.0,207.62628173828125
383.0,208.88592529296875
384.0,208.5715484619141
385.0,206.7187957763672
386.0,203.9288787841797
387.0,200.96170043945312
388.0,198.2332000732422
389.0,195.6858062744141
390.0,193.13531494140625
391.0,190.7000274658203
392.0,188.81234741210935
393.0,187.774169921875
394.0,187.32974243164065
395.0,186.7445373535156
396.0,185.37542724609372
397.0,183.2068023681641
398.0,180.8666534423828
399.0,179.1283721923828
400.0,178.3625946044922
401.0,178.38861083984375
402.0,178.7533721923828
403.0,179.10784912109375
404.0,179.3461151123047
405.0,179.46922302246094
406.0,179.3941650390625
407.0,178.9226531982422
408.0,177.88851928710938
409.0,176.3220977783203
410.0,174.4714813232422
411.0,172.6593475341797
412.0,171.09642028808594
413.0,169.8044891357422
414.0,168.70057678222656
415.0,167.75531005859375
416.0,167.07215881347656
417.0,166.80262756347656
418.0,166.96730041503906
419.0,167.3485870361328
420.0,167.57371520996094
421.0,167.3465118408203
422.0,166.6572723388672
423.0,165.81768798828125
424.0,165.29562377929688
425.0,165.45852661132812
426.0,166.38111877441406
427.0,167.81793212890625
428.0,169.3437957763672
429.0,170.56893920898438
430.0,171.29263305664062
431.0,171.5153045654297
432.0,171.34539794921875
433.0,170.91262817382812
434.0,170.35107421875
435.0,169.7984619140625
436.0,169.33596801757812
437.0,168.91030883789062
438.0,168.37843322753906
439.0,167.70242309570312
440.0,167.09243774414062
441.0,166.8578643798828
442.0,167.0284423828125
443.0,167.15878295898438
444.0,166.6429443359375
445.0,165.34347534179688
446.0,163.9091796875
447.0,163.37115478515625
448.0,164.33224487304688
449.0,166.4973907470703
450.0,168.96620178222656
451.0,170.94186401367188
452.0,172.14195251464844
453.0,172.61920166015625
454.0,172.35910034179688
455.0,171.19715881347656
456.0,169.1354522705078
457.0,166.6317901611328
458.0,164.4687042236328
459.0,163.27459716796875
460.0,163.1356964111328
461.0,163.61761474609375
462.0,164.11790466308594
463.0,164.2294921875
464.0,163.87457275390625
465.0,163.21250915527344
466.0,162.47952270507812
467.0,161.89544677734375
468.0,161.66151428222656
469.0,161.9727325439453
470.0,162.95635986328125
471.0,164.54141235351562
472.0,166.3840789794922
473.0,167.98202514648438
474.0,168.9424591064453
475.0,169.1796112060547
476.0,168.84588623046875
477.0,168.06719970703125
478.0,166.79164123535156
479.0,164.96315002441406
480.0,162.85601806640625
481.0,161.16632080078125
482.0,160.64364624023438
483.0,161.52183532714844
484.0,163.26478576660156
485.0,164.8851318359375
486.0,165.58006286621094
487.0,165.15744018554688
488.0,163.9656982421875
489.0,162.52304077148438
490.0,161.2421875
491.0,160.41513061523438
492.0,160.2677459716797
493.0,160.85462951660156
494.0,161.87757873535156
495.0,162.74501037597656
496.0,162.99537658691406
497.0,162.7473907470703
498.0,162.68121337890625
499.0,163.47463989257812
500.0,165.18878173828125
501.0,167.18516540527344
502.0,168.61666870117188
503.0,168.96157836914062
504.0,168.12945556640625
505.0,166.23011779785156
506.0,163.46791076660156
507.0,160.34361267089844
508.0,157.7924346923828
509.0,156.82420349121094
510.0,157.79800415039062
511.0,160.01443481445312
512.0,162.13526916503906
513.0,163.14102172851562
514.0,162.9896240234375
515.0,162.41835021972656
516.0,162.1471710205078
517.0,162.2722625732422
518.0,162.36009216308594
519.0,162.03604125976562
520.0,161.4369354248047
521.0,161.10751342773438
522.0,161.49159240722656
523.0,162.51841735839844
524.0,163.63096618652344
525.0,164.1826629638672
526.0,163.84425354003906
527.0,162.7308807373047
528.0,161.24778747558594
529.0,159.8508758544922
530.0,158.88836669921875
531.0,158.54307556152344
532.0,158.8174285888672
533.0,159.54580688476562
534.0,160.46310424804688
535.0,161.3161163330078
536.0,161.9395751953125
537.0,162.25047302246094
538.0,162.22572326660156
539.0,161.95309448242188
540.0,161.71121215820312
541.0,161.9001922607422
542.0,162.7382049560547
543.0,163.942626953125
544.0,164.77484130859375
545.0,164.56643676757812
546.0,163.3376922607422
547.0,161.89678955078125
548.0,161.22137451171875
549.0,161.6421356201172
550.0,162.60610961914062
551.0,163.2644805908203
552.0,163.29556274414062
553.0,163.114990234375
554.0,163.28089904785156
555.0,163.7713623046875
556.0,163.93849182128906
557.0,163.19537353515625
558.0,161.6838836669922
559.0,160.21041870117188
560.0,159.55577087402344
561.0,159.89637756347656
562.0,160.85476684570312
563.0,161.9686737060547
564.0,163.00340270996094
565.0,163.88558959960938
566.0,164.54164123535156
567.0,164.92935180664062
568.0,165.1543731689453
569.0,165.38592529296875
570.0,165.5984344482422
571.0,165.49916076660156
572.0,164.82472229003906
573.0,163.69808959960938
574.0,162.59085083007812
575.0,161.8896942138672
576.0,161.5723419189453
577.0,161.38311767578125
578.0,161.29061889648438
579.0,161.65480041503906
580.0,162.86500549316406
581.0,164.8335723876953
582.0,166.89682006835938
583.0,168.23110961914062
584.0,168.39047241210938
585.0,167.52963256835938
586.0,166.22279357910156
587.0,165.0957489013672
588.0,164.515625
589.0,164.4690399169922
590.0,164.66868591308594
591.0,164.83221435546875
592.0,164.93675231933594
593.0,165.2167510986328
594.0,165.88694763183594
595.0,166.8630828857422
596.0,167.77854919433594
597.0,168.28294372558594
598.0,168.30345153808594
599.0,168.0133514404297
600.0,167.5989990234375
601.0,167.11244201660156
602.0,166.5417022705078
603.0,165.9581756591797
604.0,165.54229736328125
605.0,165.466552734375
606.0,165.7715606689453
607.0,166.3516845703125
608.0,167.0573272705078
609.0,167.8420867919922
610.0,168.83853149414062
611.0,170.24334716796875
612.0,172.022216796875
613.0,173.6890106201172
614.0,174.49717712402344
615.0,174.05276489257812
616.0,172.8366241455078
617.0,172.01686096191406
618.0,172.54766845703125
619.0,174.32406616210938
620.0,176.2252960205078
621.0,177.0642852783203
622.0,176.57437133789062
623.0,175.531494140625
624.0,174.9674530029297
625.0,175.2685089111328
626.0,175.95901489257812
627.0,176.2562255859375
628.0,175.8083953857422
629.0,174.97251892089844
630.0,174.47581481933594
631.0,174.8258819580078
632.0,175.96754455566406
633.0,177.41567993164062
634.0,178.6927032470703
635.0,179.68353271484375
636.0,180.6343994140625
637.0,181.8463134765625
638.0,183.36083984375
639.0,184.9076690673828
640.0,186.1397705078125
641.0,186.94757080078125
642.0,187.59075927734372
643.0,188.5287170410156
644.0,190.060546875
645.0,192.0496063232422
646.0,193.97805786132807
647.0,195.33523559570312
648.0,196.058349609375
649.0,196.6732940673828
650.0,198.02264404296875
651.0,200.80322265625
652.0,205.24562072753903
653.0,211.09194946289065
654.0,217.79977416992188
655.0,224.8384246826172
656.0,232.00225830078125
657.0,239.6632843017578
658.0,248.79624938964844
659.0,260.62823486328125
660.0,276.0089111328125
661.0,294.8988342285156
662.0,316.3935852050781
663.0,339.3147277832031
664.0,362.8759460449219
665.0,386.7789001464844
666.0,410.5447998046875
667.0,432.6127624511719
668.0,450.0675354003906
669.0,459.43463134765625
670.0,458.1327819824219
671.0,445.6528015136719
672.0,423.7636413574219
673.0,395.7510681152344
674.0,365.2401428222656
675.0,335.22833251953125
676.0,307.6923522949219
677.0,283.76129150390625
678.0,264.1152648925781
679.0,249.1477203369141
680.0,238.71685791015625
681.0,231.86184692382807
682.0,227.06629943847656
683.0,223.1236724853516
684.0,219.87130737304688
685.0,217.9951019287109
686.0,218.024169921875
687.0,219.5656890869141
688.0,221.625244140625
689.0,223.6684112548828
690.0,226.2609100341797
691.0,230.59320068359372
692.0,237.3681488037109
693.0,246.10157775878903
694.0,255.36544799804688
695.0,263.6172790527344
696.0,269.90478515625
697.0,274.0224914550781
698.0,276.1488647460937
699.0,276.29638671875
700.0,274.03857421875
701.0,268.8467102050781
702.0,260.8577575683594
703.0,251.33262634277344
704.0,242.15126037597656
705.0,234.60911560058597
706.0,228.62966918945312
707.0,223.21755981445312
708.0,217.69281005859372
709.0,212.39056396484372
710.0,208.1357421875
711.0,205.2233123779297
712.0,203.15866088867188
713.0,201.40524291992188
714.0,200.12274169921875
715.0,199.9279022216797
716.0,200.96690368652344
717.0,202.44564819335935
718.0,203.17318725585935
719.0,202.44488525390625
720.0,200.29014587402344
721.0,197.03189086914065
722.0,192.95677185058597
723.0,188.5580596923828
724.0,184.82823181152344
725.0,182.85470581054688
726.0,182.88796997070312
727.0,183.9306182861328
728.0,184.5209808349609
729.0,184.0776824951172
730.0,183.4470367431641
731.0,184.0464782714844
732.0,186.42156982421875
733.0,189.6030731201172
734.0,191.82736206054688
735.0,191.8994903564453
736.0,190.0037384033203
737.0,187.4024353027344
738.0,185.43516540527344
739.0,184.6549072265625
740.0,184.6480255126953
741.0,184.52618408203125
742.0,183.68161010742188
743.0,182.279296875
744.0,181.1176605224609
745.0,180.9205780029297
746.0,181.633544921875
747.0,182.4095764160156
748.0,182.39442443847656
749.0,181.58639526367188
750.0,180.8653564453125
751.0,181.10711669921875
752.0,182.30625915527344
753.0,183.65431213378903
754.0,184.45767211914065
755.0,184.8295440673828
756.0,185.3765411376953
757.0,186.29464721679688
758.0,186.96926879882807
759.0,186.5502166748047
760.0,184.83367919921875
761.0,182.48971557617188
762.0,180.4889373779297
763.0,179.43310546875
764.0,179.40589904785156
765.0,180.21310424804688
766.0,181.5157623291016
767.0,182.76644897460935
768.0,183.3365936279297
769.0,183.0048370361328
770.0,182.3212890625
771.0,182.2435607910156
772.0,183.21292114257807
773.0,184.6316680908203
774.0,185.4258270263672
775.0,185.17822265625
776.0,184.56948852539065
777.0,184.56817626953125
778.0,185.25726318359372
779.0,185.66879272460935
780.0,184.8647918701172
781.0,183.0449066162109
782.0,181.42172241210935
783.0,181.03504943847656
784.0,181.8475646972656
785.0,183.01535034179688
786.0,183.82693481445312
787.0,184.1934356689453
788.0,184.33853149414065
789.0,184.33059692382807
790.0,184.09083557128903
791.0,183.7278594970703
792.0,183.633056640625
793.0,184.16354370117188
794.0,185.27679443359372
795.0,186.4925842285156
796.0,187.19749450683597
797.0,187.0692138671875
798.0,186.36827087402344
799.0,185.85890197753903
800.0,186.26702880859372
801.0,187.6001434326172
802.0,188.9750518798828
803.0,189.26231384277344
804.0,188.0283050537109
805.0,185.8852996826172
806.0,183.9647216796875
807.0,183.1072235107422
808.0,183.4798889160156
809.0,184.69509887695312
810.0,186.0614776611328
811.0,186.81735229492188
812.0,186.49366760253903
813.0,185.3275604248047
814.0,184.26905822753903
815.0,184.33297729492188
816.0,185.7540283203125
817.0,187.7203826904297
818.0,188.9540252685547
819.0,188.64813232421875
820.0,187.04022216796875
821.0,185.26222229003903
822.0,184.6085968017578
823.0,185.69732666015625
824.0,188.0936737060547
825.0,190.69461059570312
826.0,192.5530548095703
827.0,193.3888702392578
828.0,193.38577270507807
829.0,192.71072387695312
830.0,191.4542388916016
831.0,189.96939086914065
832.0,188.87841796875
833.0,188.4302978515625
834.0,187.9758758544922
835.0,186.4972381591797
836.0,183.8948516845703
837.0,181.58489990234372
838.0,181.49462890625
839.0,184.29556274414065
840.0,188.63514709472656
841.0,192.1427154541016
842.0,193.24668884277344
843.0,192.2037353515625
844.0,190.64329528808597
845.0,190.2281646728516
846.0,191.5430908203125
847.0,193.90513610839844
848.0,196.03021240234372
849.0,196.9563751220703
850.0,196.5742034912109
851.0,195.5101318359375
852.0,194.609375
853.0,194.44972229003903
854.0,195.1180877685547
855.0,196.2426300048828
856.0,197.23956298828125
857.0,197.7158050537109
858.0,197.77572631835935
859.0,197.8871917724609
860.0,198.32911682128903
861.0,198.7782287597656
862.0,198.5585021972656
863.0,197.35003662109372
864.0,195.581787109375
865.0,194.073486328125
866.0,193.35888671875
867.0,193.4379425048828
868.0,194.1107940673828
869.0,195.33480834960935
870.0,197.10130310058597
871.0,199.02911376953125
872.0,200.30670166015625
873.0,200.23410034179688
874.0,198.86422729492188
875.0,197.0190277099609
876.0,195.5762634277344
877.0,194.72303771972656
878.0,193.9307861328125
879.0,192.62452697753903
880.0,190.7971954345703
881.0,188.98976135253903
882.0,187.83303833007807
883.0,187.7212829589844
884.0,188.7863922119141
885.0,190.8785552978516
886.0,193.4226226806641
887.0,195.4680938720703
888.0,196.1837921142578
889.0,195.47171020507807
890.0,194.09051513671875
891.0,193.1094207763672
892.0,193.13438415527344
893.0,193.89903259277344
894.0,194.4804229736328
895.0,193.97023010253903
896.0,192.13070678710935
897.0,189.5167388916016
898.0,186.9345550537109
899.0,184.7641143798828
900.0,182.8751220703125
901.0,181.18751525878903
902.0,180.09092712402344
903.0,180.07777404785156
904.0,180.9858245849609
905.0,181.832275390625
906.0,181.53921508789065
907.0,179.7911376953125
908.0,177.18612670898438
909.0,174.7193603515625
910.0,173.23663330078125
911.0,173.1815185546875
912.0,174.44131469726562
913.0,176.20376586914062
914.0,177.1824493408203
915.0,176.45169067382812
916.0,174.3473358154297
917.0,172.41661071777344
918.0,172.10218811035156
919.0,173.23391723632812
920.0,173.93190002441406
921.0,172.29544067382812
922.0,168.3168487548828
923.0,164.00350952148438
924.0,161.51377868652344
925.0,161.3068389892578
926.0,162.24880981445312
927.0,163.27313232421875
928.0,164.42369079589844
929.0,166.11647033691406
930.0,167.86160278320312
931.0,168.31753540039062
932.0,166.67967224121094
933.0,163.63934326171875
934.0,160.77639770507812
935.0,159.22235107421875
936.0,159.08741760253906
937.0,159.9049835205078
938.0,161.16798400878906
939.0,162.37258911132812
940.0,162.9579315185547
941.0,162.59483337402344
942.0,161.52903747558594
943.0,160.42669677734375
944.0,159.80682373046875
945.0,159.69940185546875
946.0,159.85227966308594
947.0,160.1151580810547
948.0,160.50119018554688
949.0,160.95034790039062
950.0,161.24085998535156
951.0,161.27430725097656
952.0,161.39915466308594
953.0,162.24859619140625
954.0,164.05242919921875
955.0,166.07090759277344
956.0,166.88711547851562
957.0,165.51950073242188
958.0,162.38681030273438
959.0,159.12734985351562
960.0,157.33270263671875
961.0,157.35110473632812
962.0,158.2437286376953
963.0,158.78164672851562
964.0,158.37310791015625
965.0,157.09478759765625
966.0,155.15216064453125
967.0,152.67971801757812
