Ethanol
cm^-1,Intensity
150.0,8634.6357421875
151.0,8580.8115234375
152.0,8532.6220703125
153.0,8487.0185546875
154.0,8442.0234375
155.0,8396.19140625
156.0,8348.0751953125
157.0,8296.828125
158.0,8243.3857421875
159.0,8190.8154296875
160.0,8143.119140625
161.0,8103.10693359375
162.0,8070.78564453125
163.0,8043.32373046875
164.0,8016.75830078125
165.0,7988.451171875
166.0,7958.853515625
167.0,7931.271484375
168.0,7909.556640625
169.0,7895.1015625
170.0,7885.3447265625
171.0,7875.10888671875
172.0,7859.9599609375
173.0,7839.01513671875
174.0,7814.94873046875
175.0,7791.32470703125
176.0,7769.62060546875
177.0,7748.54833984375
178.0,7726.00927734375
179.0,7701.734375
180.0,7678.1552734375
181.0,7658.90478515625
182.0,7646.333984375
183.0,7640.04443359375
184.0,7637.21923828125
185.0,7634.169921875
186.0,7627.9619140625
187.0,7617.35595703125
188.0,7602.83984375
189.0,7585.9033203125
190.0,7568.0830078125
191.0,7550.48681640625
192.0,7534.2294921875
193.0,7521.24658203125
194.0,7514.2900390625
195.0,7515.3935546875
196.0,7523.71875
197.0,7534.7373046875
198.0,7542.04931640625
199.0,7540.87109375
200.0,7530.6787109375
201.0,7514.939453125
202.0,7498.26904296875
203.0,7483.39599609375
204.0,7470.3056640625
205.0,7457.947265625
206.0,7446.599609375
207.0,7438.5263671875
208.0,7436.1201171875
209.0,7439.169921875
210.0,7443.8720703125
211.0,7444.98095703125
212.0,7439.65087890625
213.0,7429.89111328125
214.0,7421.30712890625
215.0,7418.95947265625
216.0,7423.53662109375
217.0,7430.9296875
218.0,7435.38134765625
219.0,7433.52392578125
220.0,7426.201171875
221.0,7417.0498046875
222.0,7409.5400390625
223.0,7404.908203125
224.0,7402.22607421875
225.0,7399.900390625
226.0,7397.09716796875
227.0,7394.1220703125
228.0,7391.859375
229.0,7390.99560546875
230.0,7391.65185546875
231.0,7393.57373046875
232.0,7396.56103515625
233.0,7400.64453125
234.0,7405.73095703125
235.0,7410.9765625
236.0,7414.63818359375
237.0,7414.99755859375
238.0,7412.01416015625
239.0,7408.40185546875
240.0,7408.7578125
241.0,7416.8095703125
242.0,7432.5859375
243.0,7451.84228515625
244.0,7468.5625
245.0,7478.82275390625
246.0,7483.14013671875
247.0,7485.5029296875
248.0,7490.06201171875
249.0,7498.11865234375
250.0,7507.6044921875
251.0,7515.017578125
252.0,7518.08935546875
253.0,7517.3974609375
254.0,7516.21630859375
255.0,7518.9453125
256.0,7528.77001953125
257.0,7545.51123046875
258.0,7564.92919921875
259.0,7580.50634765625
260.0,7587.2216796875
261.0,7584.82275390625
262.0,7577.92724609375
263.0,7572.552734375
264.0,7571.9775390625
265.0,7575.52734375
266.0,7581.10986328125
267.0,7588.53759765625
268.0,7599.87451171875
269.0,7616.28369140625
270.0,7634.77197265625
271.0,7648.76025390625
272.0,7652.61328125
273.0,7646.27783203125
274.0,7635.6767578125
275.0,7628.48046875
276.0,7628.8203125
277.0,7635.216796875
278.0,7642.7890625
279.0,7647.31201171875
280.0,7647.88134765625
281.0,7646.7568359375
282.0,7647.34033203125
283.0,7651.94921875
284.0,7660.560546875
285.0,7670.890625
286.0,7679.73876953125
287.0,7685.02197265625
288.0,7687.18115234375
289.0,7688.7080078125
290.0,7691.82666015625
291.0,7696.23974609375
292.0,7699.20361328125
293.0,7698.23681640625
294.0,7694.1318359375
295.0,7691.22412109375
296.0,7694.32470703125
297.0,7704.83837890625
298.0,7719.5517578125
299.0,7733.0693359375
300.0,7741.56640625
301.0,7744.646484375
302.0,7744.2275390625
303.0,7742.34423828125
304.0,7740.23779296875
305.0,7739.16259765625
306.0,7741.17822265625
307.0,7748.37255859375
308.0,7760.95947265625
309.0,7776.3056640625
310.0,7790.1826171875
311.0,7799.44482421875
312.0,7803.9833984375
313.0,7806.50390625
314.0,7810.59375
315.0,7818.61865234375
316.0,7830.74853515625
317.0,7845.27734375
318.0,7859.6787109375
319.0,7871.76171875
320.0,7880.4521484375
321.0,7885.908203125
322.0,7888.93701171875
323.0,7890.12841796875
324.0,7889.427734375
325.0,7886.5439453125
326.0,7881.83935546875
327.0,7876.79345703125
328.0,7873.4794921875
329.0,7873.3544921875
330.0,7876.337890625
331.0,7880.97412109375
332.0,7885.62939453125
333.0,7889.880859375
334.0,7895.06640625
335.0,7903.47509765625
336.0,7916.572265625
337.0,7933.392578125
338.0,7950.400390625
339.0,7963.26513671875
340.0,7969.6220703125
341.0,7970.88037109375
342.0,7971.4755859375
343.0,7975.8818359375
344.0,7985.53466796875
345.0,7998.12060546875
346.0,8009.8095703125
347.0,8018.48193359375
348.0,8025.21533203125
349.0,8032.89111328125
350.0,8043.4306640625
351.0,8056.21826171875
352.0,8068.8994140625
353.0,8079.4404296875
354.0,8087.41796875
355.0,8093.7255859375
356.0,8099.58447265625
357.0,8106.08447265625
358.0,8114.31298828125
359.0,8125.1640625
360.0,8138.4150390625
361.0,8152.03369140625
362.0,8162.978515625
363.0,8169.38232421875
364.0,8172.31787109375
365.0,8175.34130859375
366.0,8182.0380859375
367.0,8193.669921875
368.0,8208.9482421875
369.0,8225.7724609375
370.0,8242.869140625
371.0,8259.63671875
372.0,8274.7080078125
373.0,8285.4189453125
374.0,8289.5166015625
375.0,8287.77734375
376.0,8284.5888671875
377.0,8285.0595703125
378.0,8290.8203125
379.0,8298.4990234375
380.0,8302.9228515625
381.0,8302.4501953125
382.0,8301.4365234375
383.0,8307.1494140625
384.0,8323.6220703125
385.0,8347.9326171875
386.0,8372.02734375
387.0,8388.2216796875
388.0,8393.634765625
389.0,8390.72265625
390.0,8384.953125
391.0,8382.3271484375
392.0,8387.87890625
393.0,8404.4013671875
394.0,8430.92578125
395.0,8462.30078125
396.0,8491.3671875
397.0,8512.953125
398.0,8526.7236328125
399.0,8536.5927734375
400.0,8547.4140625
401.0,8561.8779296875
402.0,8579.7099609375
403.0,8598.8212890625
404.0,8616.806640625
405.0,8631.869140625
406.0,8643.416015625
407.0,8652.4443359375
408.0,8661.251953125
409.0,8672.17578125
410.0,8686.3095703125
411.0,8703.6318359375
412.0,8724.712890625
413.0,8752.2490234375
414.0,8790.353515625
415.0,8841.6162109375
416.0,8904.31640625
417.0,8972.5478515625
418.0,9039.5517578125
419.0,9101.783203125
420.0,9160.5546875
421.0,9220.2548828125
422.0,9285.06640625
423.0,9356.94921875
424.0,9435.9208984375
425.0,9521.2666015625
426.0,9611.6611328125
427.0,9703.9619140625
428.0,9792.353515625
429.0,9869.521484375
430.0,9929.49609375
431.0,9970.08203125
432.0,9993.140625
433.0,10002.8427734375
434.0,10003.3740234375
435.0,9997.3173828125
436.0,9984.9921875
437.0,9964.6767578125
438.0,9933.87890625
439.0,9891.486328125
440.0,9839.642578125
441.0,9783.755859375
442.0,9730.140625
443.0,9682.8779296875
444.0,9642.263671875
445.0,9605.8994140625
446.0,9571.267578125
447.0,9537.5537109375
448.0,9505.4765625
449.0,9475.7431640625
450.0,9447.7470703125
451.0,9419.693359375
452.0,9389.9609375
453.0,9358.4912109375
454.0,9326.9462890625
455.0,9297.333984375
456.0,9270.17578125
457.0,9243.890625
458.0,9216.2236328125
459.0,9186.7373046875
460.0,9157.98828125
461.0,9133.83984375
462.0,9115.873046875
463.0,9100.9775390625
464.0,9082.708984375
465.0,9055.8466796875
466.0,9020.5791015625
467.0,8982.8916015625
468.0,8950.869140625
469.0,8929.9580078125
470.0,8920.619140625
471.0,8919.1611328125
472.0,8920.0302734375
473.0,8917.7763671875
474.0,8908.5419921875
475.0,8891.6728515625
476.0,8870.72265625
477.0,8852.0966796875
478.0,8840.927734375
479.0,8836.984375
480.0,8834.4072265625
481.0,8826.1796875
482.0,8809.779296875
483.0,8788.9892578125
484.0,8770.4130859375
485.0,8758.025390625
486.0,8750.544921875
487.0,8743.34765625
488.0,8732.4248046875
489.0,8716.583984375
490.0,8696.5732421875
491.0,8672.8173828125
492.0,8644.4443359375
493.0,8610.462890625
494.0,8571.724609375
495.0,8531.5361328125
496.0,8494.0283203125
497.0,8461.423828125
498.0,8432.455078125
499.0,8403.3798828125
500.0,8370.94140625
501.0,8334.8525390625
502.0,8297.6435546875
503.0,8262.021484375
504.0,8228.2509765625
505.0,8194.111328125
506.0,8157.56201171875
507.0,8119.41455078125
508.0,8083.14697265625
509.0,8051.75634765625
510.0,8024.53515625
511.0,7996.970703125
512.0,7964.15673828125
513.0,7924.8935546875
514.0,7883.1083984375
515.0,7845.53564453125
516.0,7817.42041015625
517.0,7799.2021484375
518.0,7786.10107421875
519.0,7770.7314453125
520.0,7747.33544921875
521.0,7715.33642578125
522.0,7679.91845703125
523.0,7648.8525390625
524.0,7627.361328125
525.0,7614.6357421875
526.0,7604.7861328125
527.0,7591.57080078125
528.0,7573.0224609375
529.0,7552.22607421875
530.0,7533.85791015625
531.0,7519.76953125
532.0,7507.599609375
533.0,7493.43798828125
534.0,7475.85986328125
535.0,7457.5322265625
536.0,7442.89404296875
537.0,7434.0966796875
538.0,7428.978515625
539.0,7422.8740234375
540.0,7412.4814453125
541.0,7398.23046875
542.0,7383.248046875
543.0,7370.318359375
544.0,7359.8056640625
545.0,7349.9775390625
546.0,7338.7333984375
547.0,7324.9375
548.0,7308.8291015625
549.0,7292.1103515625
550.0,7277.83154296875
551.0,7269.28369140625
552.0,7267.67431640625
553.0,7270.26904296875
554.0,7271.3291015625
555.0,7266.01171875
556.0,7254.27880859375
557.0,7241.2021484375
558.0,7232.95751953125
559.0,7231.75732421875
560.0,7234.00732421875
561.0,7233.16796875
562.0,7224.82373046875
563.0,7209.75732421875
564.0,7192.73046875
565.0,7178.4404296875
566.0,7168.3212890625
567.0,7160.75439453125
568.0,7153.87353515625
569.0,7147.7451171875
570.0,7143.58984375
571.0,7141.1455078125
572.0,7137.5029296875
573.0,7129.27587890625
574.0,7116.244140625
575.0,7102.62744140625
576.0,7094.3544921875
577.0,7094.6865234375
578.0,7102.06591796875
579.0,7111.68310546875
580.0,7118.83837890625
581.0,7121.162109375
582.0,7118.689453125
583.0,7112.869140625
584.0,7105.693359375
585.0,7099.05419921875
586.0,7093.99951171875
587.0,7090.20556640625
588.0,7086.39111328125
589.0,7081.5869140625
590.0,7076.095703125
591.0,7071.0888671875
592.0,7067.2119140625
593.0,7063.80810546875
594.0,7059.8779296875
595.0,7055.953125
596.0,7054.68359375
597.0,7058.79248046875
598.0,7067.775390625
599.0,7076.697265625
600.0,7079.072265625
601.0,7071.884765625
602.0,7058.19482421875
603.0,7044.66162109375
604.0,7036.2724609375
605.0,7033.39208984375
606.0,7033.50634765625
607.0,7034.8349609375
608.0,7037.3505859375
609.0,7040.4951171875
610.0,7041.310546875
611.0,7036.28515625
612.0,7025.330078125
613.0,7013.21484375
614.0,7006.2939453125
615.0,7007.4853515625
616.0,7014.22900390625
617.0,7020.90673828125
618.0,7023.001953125
619.0,7019.60693359375
620.0,7013.2841796875
621.0,7008.31640625
622.0,7008.42578125
623.0,7014.6201171875
624.0,7024.201171875
625.0,7032.15673828125
626.0,7034.54150390625
627.0,7031.2587890625
628.0,7025.6328125
629.0,7021.083984375
630.0,7018.21826171875
631.0,7015.22802734375
632.0,7010.955078125
633.0,7007.10546875
634.0,7007.0068359375
635.0,7012.029296875
636.0,7019.38623046875
637.0,7023.798828125
638.0,7021.71630859375
639.0,7014.32763671875
640.0,7006.76318359375
641.0,7004.28466796875
642.0,7008.6025390625
643.0,7016.931640625
644.0,7024.05126953125
645.0,7025.74365234375
646.0,7021.56201171875
647.0,7015.28515625
648.0,7012.47119140625
649.0,7016.2919921875
650.0,7024.693359375
651.0,7031.72607421875
652.0,7032.5185546875
653.0,7027.56884765625
654.0,7022.06884765625
655.0,7020.74951171875
656.0,7023.49658203125
657.0,7026.29833984375
658.0,7026.2373046875
659.0,7024.783203125
660.0,7025.7314453125
661.0,7030.32177734375
662.0,7035.322265625
663.0,7036.486328125
664.0,7033.71337890625
665.0,7032.19140625
666.0,7037.9775390625
667.0,7052.23193359375
668.0,7069.69091796875
669.0,7082.86279296875
670.0,7088.02001953125
671.0,7087.56640625
672.0,7086.99951171875
673.0,7089.72021484375
674.0,7094.5478515625
675.0,7097.71044921875
676.0,7096.8134765625
677.0,7093.03466796875
678.0,7090.22607421875
679.0,7092.44775390625
680.0,7101.8974609375
681.0,7117.86962890625
682.0,7136.8203125
683.0,7153.97412109375
684.0,7166.3037109375
685.0,7174.7138671875
686.0,7182.78173828125
687.0,7192.48193359375
688.0,7201.17626953125
689.0,7203.65576171875
690.0,7197.72412109375
691.0,7187.5703125
692.0,7181.14892578125
693.0,7183.978515625
694.0,7195.162109375
695.0,7208.72412109375
696.0,7218.1953125
697.0,7220.4453125
698.0,7216.7626953125
699.0,7211.56884765625
700.0,7209.7841796875
701.0,7213.93701171875
702.0,7222.68310546875
703.0,7232.18017578125
704.0,7239.494140625
705.0,7244.86572265625
706.0,7250.5166015625
707.0,7257.32470703125
708.0,7263.06396484375
709.0,7264.14892578125
710.0,7259.05859375
711.0,7250.04638671875
712.0,7241.7216796875
713.0,7237.9462890625
714.0,7239.53515625
715.0,7244.30419921875
716.0,7249.34375
717.0,7253.876953125
718.0,7260.26025390625
719.0,7271.79150390625
720.0,7288.9130859375
721.0,7307.54833984375
722.0,7321.697265625
723.0,7328.080078125
724.0,7328.32080078125
725.0,7326.88232421875
726.0,7327.4765625
727.0,7331.59423828125
728.0,7339.3447265625
729.0,7349.9365234375
730.0,7360.70263671875
731.0,7366.95751953125
732.0,7364.80908203125
733.0,7355.00830078125
734.0,7343.51513671875
735.0,7337.4814453125
736.0,7340.41650390625
737.0,7351.0693359375
738.0,7366.14990234375
739.0,7383.0185546875
740.0,7399.65869140625
741.0,7413.44384765625
742.0,7421.6005859375
743.0,7423.43798828125
744.0,7421.55908203125
745.0,7420.32861328125
746.0,7423.1474609375
747.0,7431.1279296875
748.0,7443.6025390625
749.0,7458.84912109375
750.0,7474.2197265625
751.0,7486.71044921875
752.0,7494.716796875
753.0,7499.4638671875
754.0,7503.99560546875
755.0,7510.17041015625
756.0,7516.84814453125
757.0,7521.47412109375
758.0,7523.3798828125
759.0,7524.99169921875
760.0,7529.57177734375
761.0,7538.185546875
762.0,7549.31494140625
763.0,7561.12890625
764.0,7573.24365234375
765.0,7585.771484375
766.0,7597.29248046875
767.0,7605.0400390625
768.0,7607.85888671875
769.0,7608.6396484375
770.0,7612.86376953125
771.0,7624.13330078125
772.0,7641.125
773.0,7659.02197265625
774.0,7673.6611328125
775.0,7684.14892578125
776.0,7692.14453125
777.0,7699.93212890625
778.0,7709.71630859375
779.0,7723.5625
780.0,7742.02197265625
781.0,7762.11474609375
782.0,7778.033203125
783.0,7785.70361328125
784.0,7787.14501953125
785.0,7789.44189453125
786.0,7798.6904296875
787.0,7815.0849609375
788.0,7834.03271484375
789.0,7851.20751953125
790.0,7865.544921875
791.0,7877.7529296875
792.0,7887.74365234375
793.0,7894.8623046875
794.0,7900.1025390625
795.0,7906.49072265625
796.0,7916.39794921875
797.0,7928.75244140625
798.0,7939.51123046875
799.0,7945.12451171875
800.0,7945.7138671875
801.0,7945.16064453125
802.0,7948.09765625
803.0,7956.275390625
804.0,7967.3427734375
805.0,7977.34033203125
806.0,7984.91552734375
807.0,7993.0986328125
808.0,8006.3056640625
809.0,8025.1201171875
810.0,8044.267578125
811.0,8056.302734375
812.0,8057.7373046875
813.0,8051.91796875
814.0,8046.24658203125
815.0,8046.3603515625
816.0,8051.95263671875
817.0,8057.2294921875
818.0,8055.74072265625
819.0,8046.197265625
820.0,8034.37841796875
821.0,8028.51220703125
822.0,8031.47509765625
823.0,8037.49267578125
824.0,8037.66357421875
825.0,8029.3466796875
826.0,8019.4541015625
827.0,8017.6953125
828.0,8026.8486328125
829.0,8040.33642578125
830.0,8049.12939453125
831.0,8050.03759765625
832.0,8047.03076171875
833.0,8045.6455078125
834.0,8047.41845703125
835.0,8049.73291015625
836.0,8050.0146484375
837.0,8049.328125
838.0,8051.947265625
839.0,8061.5146484375
840.0,8077.28466796875
841.0,8094.0361328125
842.0,8106.34228515625
843.0,8113.7265625
844.0,8121.50634765625
845.0,8135.77197265625
846.0,8157.13916015625
847.0,8179.8818359375
848.0,8197.75390625
849.0,8210.6435546875
850.0,8225.2626953125
851.0,8249.328125
852.0,8285.134765625
853.0,8328.30078125
854.0,8371.921875
855.0,8411.703125
856.0,8448.09765625
857.0,8485.22265625
858.0,8528.8251953125
859.0,8584.6923828125
860.0,8656.8427734375
861.0,8745.0576171875
862.0,8843.8779296875
863.0,8945.916015625
864.0,9048.4169921875
865.0,9157.2802734375
866.0,9284.1298828125
867.0,9439.53125
868.0,9630.0576171875
869.0,9861.8681640625
870.0,10144.9833984375
871.0,10492.1474609375
872.0,10914.8720703125
873.0,11424.40234375
874.0,12038.486328125
875.0,12784.2783203125
876.0,13687.7060546875
877.0,14751.85546875
878.0,15938.0185546875
879.0,17162.208984375
880.0,18309.4765625
881.0,19258.638671875
882.0,19906.9765625
883.0,20187.6015625
884.0,20077.5390625
885.0,19598.12890625
886.0,18809.32421875
887.0,17798.064453125
888.0,16662.3203125
889.0,15496.08203125
890.0,14380.1552734375
891.0,13377.5859375
892.0,12528.3896484375
893.0,11843.22265625
894.0,11303.5390625
895.0,10874.05078125
896.0,10521.58984375
897.0,10227.0341796875
898.0,9983.548828125
899.0,9787.2734375
900.0,9630.869140625
901.0,9503.94921875
902.0,9397.037109375
903.0,9304.5400390625
904.0,9224.9306640625
905.0,9158.501953125
906.0,9104.26171875
907.0,9058.3134765625
908.0,9015.1865234375
909.0,8970.96875
910.0,8925.677734375
911.0,8883.2861328125
912.0,8849.3974609375
913.0,8827.3251953125
914.0,8814.591796875
915.0,8803.29296875
916.0,8785.6943359375
917.0,8760.6474609375
918.0,8733.9814453125
919.0,8712.08203125
920.0,8696.0
921.0,8682.791015625
922.0,8671.3837890625
923.0,8664.6337890625
924.0,8664.775390625
925.0,8668.638671875
926.0,8669.328125
927.0,8662.6552734375
928.0,8650.7080078125
929.0,8638.76953125
930.0,8629.736328125
931.0,8622.455078125
932.0,8614.99609375
933.0,8608.0107421875
934.0,8603.8095703125
935.0,8602.7060546875
936.0,8601.896484375
937.0,8598.8662109375
938.0,8594.91796875
939.0,8593.619140625
940.0,8595.703125
941.0,8597.583984375
942.0,8596.4951171875
943.0,8595.7607421875
944.0,8601.931640625
945.0,8615.623046875
946.0,8627.3369140625
947.0,8625.01171875
948.0,8605.931640625
949.0,8579.8466796875
950.0,8560.193359375
951.0,8553.4638671875
952.0,8557.1025390625
953.0,8565.0849609375
954.0,8572.9599609375
955.0,8578.3623046875
956.0,8580.373046875
957.0,8580.8134765625
958.0,8584.787109375
959.0,8596.833984375
960.0,8615.2548828125
961.0,8631.4619140625
962.0,8636.548828125
963.0,8628.8564453125
964.0,8614.8447265625
965.0,8602.7451171875
966.0,8595.68359375
967.0,8590.3916015625
968.0,8581.4150390625
969.0,8566.357421875
970.0,8548.3701171875
971.0,8534.8056640625
972.0,8532.74609375
973.0,8543.7294921875
974.0,8561.66796875
975.0,8576.734375
976.0,8582.6435546875
977.0,8580.345703125
978.0,8574.3076171875
979.0,8566.056640625
980.0,8553.2470703125
981.0,8535.6396484375
982.0,8520.095703125
983.0,8516.8740234375
984.0,8529.7548828125
985.0,8550.625
986.0,8565.2802734375
987.0,8565.48046875
988.0,8555.6767578125
989.0,8548.0830078125
990.0,8551.30859375
991.0,8563.701171875
992.0,8577.30859375
993.0,8587.388671875
994.0,8596.9501953125
995.0,8611.5869140625
996.0,8630.8212890625
997.0,8646.3173828125
998.0,8649.7578125
999.0,8641.9580078125
1000.0,8632.7744140625
1001.0,8631.5732421875
1002.0,8638.935546875
1003.0,8648.796875
1004.0,8657.421875
1005.0,8667.2890625
1006.0,8681.2080078125
1007.0,8695.7265625
1008.0,8704.2744140625
1009.0,8706.7294921875
1010.0,8712.046875
1011.0,8729.1181640625
1012.0,8756.9970703125
1013.0,8786.6923828125
1014.0,8811.453125
1015.0,8832.30859375
1016.0,8853.6220703125
1017.0,8876.740234375
1018.0,8900.0205078125
1019.0,8922.994140625
1020.0,8947.5625
1021.0,8975.0859375
1022.0,9004.341796875
1023.0,9033.4287109375
1024.0,9063.14453125
1025.0,9097.640625
1026.0,9141.2138671875
1027.0,9193.9755859375
1028.0,9250.7529296875
1029.0,9305.06640625
1030.0,9354.76171875
1031.0,9403.7451171875
1032.0,9458.8359375
1033.0,9526.32421875
1034.0,9611.2373046875
1035.0,9716.662109375
1036.0,9841.126953125
1037.0,9978.345703125
1038.0,10123.2236328125
1039.0,10278.3193359375
1040.0,10451.091796875
1041.0,10643.4423828125
1042.0,10846.6435546875
1043.0,11048.55859375
1044.0,11243.7451171875
1045.0,11433.9072265625
1046.0,11619.7744140625
1047.0,11795.5009765625
1048.0,11950.66796875
1049.0,12075.1484375
1050.0,12162.44140625
1051.0,12211.755859375
1052.0,12227.53515625
1053.0,12212.798828125
1054.0,12160.125
1055.0,12052.9248046875
1056.0,11882.091796875
1057.0,11663.1484375
1058.0,11433.2001953125
1059.0,11227.2578125
1060.0,11056.6689453125
1061.0,10909.8349609375
1062.0,10770.8388671875
1063.0,10635.169921875
1064.0,10509.9697265625
1065.0,10404.7734375
1066.0,10325.05078125
1067.0,10272.18359375
