Methyl Isobutyl Ketone
cm^-1,Intensity
150.0,17197.560546875
151.0,17002.94921875
152.0,16838.46875
153.0,16696.01953125
154.0,16563.818359375
155.0,16431.861328125
156.0,16296.5732421875
157.0,16162.671875
158.0,16041.0625
159.0,15943.52734375
160.0,15876.751953125
161.0,15839.541015625
162.0,15825.2099609375
163.0,15827.630859375
164.0,15846.1611328125
165.0,15885.5693359375
166.0,15951.109375
167.0,16043.1845703125
168.0,16156.1435546875
169.0,16281.984375
170.0,16415.43359375
171.0,16556.12109375
172.0,16706.46875
173.0,16867.384765625
174.0,17034.783203125
175.0,17198.310546875
176.0,17342.09375
177.0,17447.048828125
178.0,17494.90625
179.0,17473.5546875
180.0,17381.53515625
181.0,17228.91796875
182.0,17033.017578125
183.0,16811.095703125
184.0,16574.08984375
185.0,16324.9287109375
186.0,16061.7412109375
187.0,15783.2158203125
188.0,15492.640625
189.0,15198.4921875
190.0,14911.9462890625
191.0,14643.0556640625
192.0,14397.59375
193.0,14175.6806640625
194.0,13972.4296875
195.0,13780.34765625
196.0,13592.7392578125
197.0,13406.9677734375
198.0,13225.91796875
199.0,13056.4775390625
200.0,12905.4326171875
201.0,12775.1806640625
202.0,12662.3134765625
203.0,12560.234375
204.0,12463.806640625
205.0,12372.1083984375
206.0,12287.0595703125
207.0,12209.3642578125
208.0,12135.9384765625
209.0,12061.5205078125
210.0,11983.21875
211.0,11903.6328125
212.0,11829.572265625
213.0,11767.3974609375
214.0,11719.1494140625
215.0,11682.4169921875
216.0,11653.1201171875
217.0,11627.8310546875
218.0,11603.6142578125
219.0,11576.7060546875
220.0,11542.91796875
221.0,11500.51953125
222.0,11453.041015625
223.0,11408.5966796875
224.0,11375.2666015625
225.0,11355.8447265625
226.0,11346.0673828125
227.0,11337.6875
228.0,11323.7783203125
229.0,11302.44921875
230.0,11276.8125
231.0,11252.2099609375
232.0,11233.0498046875
233.0,11221.1025390625
234.0,11215.556640625
235.0,11214.1123046875
236.0,11214.32421875
237.0,11214.5654296875
238.0,11214.30859375
239.0,11213.6953125
240.0,11212.806640625
241.0,11211.283203125
242.0,11208.662109375
243.0,11205.12890625
244.0,11201.92578125
245.0,11200.8291015625
246.0,11202.8916015625
247.0,11207.310546875
248.0,11211.3466796875
249.0,11211.6044921875
250.0,11206.04296875
251.0,11195.462890625
252.0,11183.416015625
253.0,11174.375
254.0,11171.2080078125
255.0,11173.5302734375
256.0,11178.0498046875
257.0,11180.640625
258.0,11178.6357421875
259.0,11171.755859375
260.0,11161.1865234375
261.0,11147.9033203125
262.0,11131.8515625
263.0,11112.6962890625
264.0,11091.2392578125
265.0,11069.88671875
266.0,11051.474609375
267.0,11037.501953125
268.0,11027.494140625
269.0,11020.150390625
270.0,11015.005859375
271.0,11012.7744140625
272.0,11013.9716796875
273.0,11017.4306640625
274.0,11020.6455078125
275.0,11021.9052734375
276.0,11022.1298828125
277.0,11024.263671875
278.0,11030.634765625
279.0,11040.8544921875
280.0,11052.5576171875
281.0,11064.396484375
282.0,11078.2529296875
283.0,11098.1220703125
284.0,11126.173828125
285.0,11159.435546875
286.0,11190.3818359375
287.0,11211.8369140625
288.0,11222.8583984375
289.0,11231.197265625
290.0,11249.9130859375
291.0,11290.0146484375
292.0,11354.203125
293.0,11436.3056640625
294.0,11527.0068359375
295.0,11621.34375
296.0,11722.07421875
297.0,11836.443359375
298.0,11969.82421875
299.0,12122.44921875
300.0,12292.3154296875
301.0,12481.310546875
302.0,12698.421875
303.0,12957.056640625
304.0,13269.4248046875
305.0,13644.0537109375
306.0,14089.3681640625
307.0,14620.591796875
308.0,15264.18359375
309.0,16055.873046875
310.0,17032.333984375
311.0,18218.43359375
312.0,19612.2109375
313.0,21170.412109375
314.0,22799.8046875
315.0,24361.583984375
316.0,25692.978515625
317.0,26641.8359375
318.0,27102.822265625
319.0,27041.203125
320.0,26496.037109375
321.0,25563.958984375
322.0,24371.18359375
323.0,23044.45703125
324.0,21689.857421875
325.0,20383.54296875
326.0,19173.712890625
327.0,18088.3203125
328.0,17142.21875
329.0,16340.4306640625
330.0,15678.8037109375
331.0,15145.3193359375
332.0,14723.583984375
333.0,14396.78125
334.0,14149.5693359375
335.0,13967.8056640625
336.0,13838.4150390625
337.0,13751.1015625
338.0,13700.6875
339.0,13687.2607421875
340.0,13712.8681640625
341.0,13776.57421875
342.0,13871.0146484375
343.0,13982.12109375
344.0,14091.6484375
345.0,14181.2119140625
346.0,14236.517578125
347.0,14250.3486328125
348.0,14222.76953125
349.0,14158.15234375
350.0,14061.0810546875
351.0,13934.267578125
352.0,13780.033203125
353.0,13603.5439453125
354.0,13414.3994140625
355.0,13224.8271484375
356.0,13045.755859375
357.0,12883.64453125
358.0,12739.8427734375
359.0,12612.3046875
360.0,12498.2744140625
361.0,12396.28125
362.0,12306.37890625
363.0,12228.640625
364.0,12161.3759765625
365.0,12101.130859375
366.0,12044.94921875
367.0,11992.76953125
368.0,11947.0537109375
369.0,11909.3994140625
370.0,11877.484375
371.0,11845.9462890625
372.0,11810.93359375
373.0,11773.7998046875
374.0,11739.9638671875
375.0,11713.712890625
376.0,11694.109375
377.0,11676.0615234375
378.0,11655.4599609375
379.0,11633.37890625
380.0,11615.3701171875
381.0,11606.73046875
382.0,11608.1220703125
383.0,11615.248046875
384.0,11622.5
385.0,11627.2587890625
386.0,11631.529296875
387.0,11640.091796875
388.0,11657.1953125
389.0,11684.4833984375
390.0,11721.25390625
391.0,11765.990234375
392.0,11817.3349609375
393.0,11873.935546875
394.0,11934.1953125
395.0,11997.078125
396.0,12063.4716796875
397.0,12136.3330078125
398.0,12218.6748046875
399.0,12310.783203125
400.0,12409.390625
401.0,12510.0234375
402.0,12610.919921875
403.0,12715.5595703125
404.0,12832.263671875
405.0,12971.9072265625
406.0,13145.8720703125
407.0,13365.2900390625
408.0,13641.25
409.0,13985.2412109375
410.0,14409.5244140625
411.0,14926.744140625
412.0,15546.9443359375
413.0,16270.318359375
414.0,17076.783203125
415.0,17917.361328125
416.0,18714.248046875
417.0,19373.138671875
418.0,19805.310546875
419.0,19952.0
420.0,19801.994140625
421.0,19395.98828125
422.0,18816.01953125
423.0,18163.041015625
424.0,17530.099609375
425.0,16981.16015625
426.0,16543.455078125
427.0,16214.7880859375
428.0,15979.712890625
429.0,15824.2685546875
430.0,15741.5927734375
431.0,15727.982421875
432.0,15774.9853515625
433.0,15864.53515625
434.0,15970.3798828125
435.0,16063.9794921875
436.0,16120.439453125
437.0,16121.1474609375
438.0,16053.361328125
439.0,15909.7373046875
440.0,15690.220703125
441.0,15405.2900390625
442.0,15076.4560546875
443.0,14731.029296875
444.0,14392.990234375
445.0,14076.0341796875
446.0,13783.896484375
447.0,13516.828125
448.0,13277.794921875
449.0,13072.841796875
450.0,12906.1591796875
451.0,12775.54296875
452.0,12672.8251953125
453.0,12588.3388671875
454.0,12514.9326171875
455.0,12448.6982421875
456.0,12387.8505859375
457.0,12332.490234375
458.0,12285.30859375
459.0,12250.7001953125
460.0,12231.1474609375
461.0,12223.6572265625
462.0,12220.2890625
463.0,12213.4111328125
464.0,12201.3955078125
465.0,12189.7724609375
466.0,12187.0966796875
467.0,12199.4150390625
468.0,12227.744140625
469.0,12269.4384765625
470.0,12321.044921875
471.0,12380.1591796875
472.0,12445.7451171875
473.0,12517.5400390625
474.0,12594.943359375
475.0,12675.63671875
476.0,12754.9365234375
477.0,12826.9130859375
478.0,12886.6376953125
479.0,12931.109375
480.0,12957.4814453125
481.0,12960.658203125
482.0,12934.2158203125
483.0,12875.5224609375
484.0,12790.623046875
485.0,12693.166015625
486.0,12596.6572265625
487.0,12506.1962890625
488.0,12416.9111328125
489.0,12320.2275390625
490.0,12212.2041015625
491.0,12097.1142578125
492.0,11984.537109375
493.0,11883.634765625
494.0,11798.9521484375
495.0,11729.21875
496.0,11668.4638671875
497.0,11608.7548828125
498.0,11544.10546875
499.0,11473.96484375
500.0,11403.6552734375
501.0,11340.72265625
502.0,11289.7412109375
503.0,11249.76171875
504.0,11216.1484375
505.0,11184.521484375
506.0,11153.08203125
507.0,11122.0166015625
508.0,11091.8837890625
509.0,11063.2607421875
510.0,11037.724609375
511.0,11018.34375
512.0,11008.423828125
513.0,11009.357421875
514.0,11019.53515625
515.0,11035.55859375
516.0,11055.1796875
517.0,11080.04296875
518.0,11116.224609375
519.0,11171.888671875
520.0,11253.541015625
521.0,11363.8681640625
522.0,11503.0205078125
523.0,11671.5283203125
524.0,11870.294921875
525.0,12094.8203125
526.0,12326.9658203125
527.0,12532.2998046875
528.0,12668.5087890625
529.0,12701.583984375
530.0,12619.4375
531.0,12434.1435546875
532.0,12173.44140625
533.0,11869.7734375
534.0,11554.12890625
535.0,11254.5888671875
536.0,10994.5166015625
537.0,10787.7509765625
538.0,10634.2724609375
539.0,10521.587890625
540.0,10432.388671875
541.0,10353.2890625
542.0,10278.8173828125
543.0,10209.7080078125
544.0,10148.8994140625
545.0,10098.798828125
546.0,10060.6181640625
547.0,10034.7587890625
548.0,10021.3359375
549.0,10020.21875
550.0,10029.890625
551.0,10045.376953125
552.0,10057.8828125
553.0,10059.18359375
554.0,10049.5068359375
555.0,10041.9990234375
556.0,10057.134765625
557.0,10108.9990234375
558.0,10194.712890625
559.0,10297.2197265625
560.0,10399.59765625
561.0,10498.0068359375
562.0,10601.9736328125
563.0,10723.5791015625
564.0,10867.5595703125
565.0,11031.306640625
566.0,11212.0439453125
567.0,11411.5830078125
568.0,11633.5986328125
569.0,11877.7666015625
570.0,12137.916015625
571.0,12405.45703125
572.0,12673.08203125
573.0,12934.4892578125
574.0,13181.8037109375
575.0,13405.6796875
576.0,13599.6337890625
577.0,13764.849609375
578.0,13910.8427734375
579.0,14052.009765625
580.0,14204.8486328125
581.0,14390.1396484375
582.0,14638.88671875
583.0,14996.4892578125
584.0,15521.91796875
585.0,16286.8623046875
586.0,17384.625
587.0,18948.97265625
588.0,21159.904296875
589.0,24196.8515625
590.0,28117.6640625
591.0,32700.400390625
592.0,37349.37109375
593.0,41172.45703125
594.0,43253.15234375
595.0,43009.83984375
596.0,40451.89453125
597.0,36181.30859375
598.0,31136.427734375
599.0,26227.470703125
600.0,22057.94921875
601.0,18844.46484375
602.0,16512.82421875
603.0,14861.1240234375
604.0,13685.9208984375
605.0,12834.044921875
606.0,12202.01171875
607.0,11720.2421875
608.0,11341.9072265625
609.0,11036.92578125
610.0,10786.669921875
611.0,10579.0947265625
612.0,10406.0400390625
613.0,10262.2841796875
614.0,10144.4453125
615.0,10049.3955078125
616.0,9973.6220703125
617.0,9914.1513671875
618.0,9869.5634765625
619.0,9839.5078125
620.0,9823.138671875
621.0,9818.3984375
622.0,9823.1240234375
623.0,9836.8359375
624.0,9861.3388671875
625.0,9899.439453125
626.0,9952.69921875
627.0,10019.5654296875
628.0,10094.525390625
629.0,10168.193359375
630.0,10228.09765625
631.0,10260.2578125
632.0,10251.7890625
633.0,10194.529296875
634.0,10088.876953125
635.0,9945.955078125
636.0,9785.9599609375
637.0,9632.0341796875
638.0,9501.9912109375
639.0,9402.55078125
640.0,9329.7666015625
641.0,9275.068359375
642.0,9232.02734375
643.0,9198.6962890625
644.0,9174.76171875
645.0,9157.47265625
646.0,9140.9443359375
647.0,9119.587890625
648.0,9092.259765625
649.0,9063.228515625
650.0,9039.1845703125
651.0,9024.755859375
652.0,9019.66796875
653.0,9019.1064453125
654.0,9016.7705078125
655.0,9008.6572265625
656.0,8995.228515625
657.0,8980.537109375
658.0,8969.146484375
659.0,8963.419921875
660.0,8963.1669921875
661.0,8967.07421875
662.0,8973.591796875
663.0,8980.2294921875
664.0,8982.9482421875
665.0,8977.958984375
666.0,8965.45703125
667.0,8951.779296875
668.0,8946.8466796875
669.0,8957.7724609375
670.0,8983.3623046875
671.0,9014.048828125
672.0,9037.5126953125
673.0,9045.8720703125
674.0,9039.44921875
675.0,9025.255859375
676.0,9012.2568359375
677.0,9006.9228515625
678.0,9011.1103515625
679.0,9022.2412109375
680.0,9035.1298828125
681.0,9044.9208984375
682.0,9050.0283203125
683.0,9053.0068359375
684.0,9058.154296875
685.0,9067.5205078125
686.0,9079.0400390625
687.0,9088.6572265625
688.0,9094.1826171875
689.0,9096.9091796875
690.0,9099.7568359375
691.0,9104.5654296875
692.0,9111.50390625
693.0,9120.46484375
694.0,9131.8388671875
695.0,9145.3447265625
696.0,9158.603515625
697.0,9167.9716796875
698.0,9171.5654296875
699.0,9171.58203125
700.0,9173.1982421875
701.0,9180.6142578125
702.0,9193.8095703125
703.0,9209.0234375
704.0,9222.3251953125
705.0,9232.62109375
706.0,9241.41015625
707.0,9250.2841796875
708.0,9259.3056640625
709.0,9267.55859375
710.0,9274.115234375
711.0,9277.6806640625
712.0,9276.171875
713.0,9268.583984375
714.0,9258.328125
715.0,9253.7421875
716.0,9263.2802734375
717.0,9288.837890625
718.0,9323.7158203125
719.0,9357.50390625
720.0,9383.2216796875
721.0,9400.2353515625
722.0,9411.62890625
723.0,9420.3505859375
724.0,9428.466796875
725.0,9438.951171875
726.0,9455.921875
727.0,9481.208984375
728.0,9510.3681640625
729.0,9533.7294921875
730.0,9544.021484375
731.0,9544.8427734375
732.0,9551.2373046875
733.0,9579.6259765625
734.0,9634.7646484375
735.0,9705.7294921875
736.0,9775.2685546875
737.0,9834.0517578125
738.0,9886.6875
739.0,9944.966796875
740.0,10016.4921875
741.0,10099.9951171875
742.0,10190.1416015625
743.0,10284.708984375
744.0,10386.3115234375
745.0,10498.3427734375
746.0,10620.9912109375
747.0,10751.595703125
748.0,10887.5859375
749.0,11027.4970703125
750.0,11168.8876953125
751.0,11306.5361328125
752.0,11434.171875
753.0,11548.3212890625
754.0,11649.7236328125
755.0,11740.64453125
756.0,11821.94140625
757.0,11894.5634765625
758.0,11964.404296875
759.0,12044.0341796875
760.0,12147.3818359375
761.0,12281.439453125
762.0,12442.849609375
763.0,12622.08203125
764.0,12810.3740234375
765.0,13003.44921875
766.0,13201.03125
767.0,13405.2099609375
768.0,13620.08203125
769.0,13852.92578125
770.0,14116.4990234375
771.0,14431.2763671875
772.0,14825.1220703125
773.0,15329.330078125
774.0,15974.701171875
775.0,16792.1171875
776.0,17814.349609375
777.0,19068.796875
778.0,20557.828125
779.0,22240.0
780.0,24029.4765625
781.0,25813.109375
782.0,27466.234375
783.0,28856.638671875
784.0,29852.38671875
785.0,30355.453125
786.0,30352.701171875
787.0,29942.58984375
788.0,29304.75390625
789.0,28627.08203125
790.0,28040.50390625
791.0,27598.150390625
792.0,27292.4296875
793.0,27079.03125
794.0,26890.166015625
795.0,26644.55078125
796.0,26267.275390625
797.0,25717.138671875
798.0,25004.919921875
799.0,24189.408203125
800.0,23353.638671875
801.0,22576.494140625
802.0,21915.056640625
803.0,21402.939453125
804.0,21058.603515625
805.0,20893.5703125
806.0,20915.041015625
807.0,21124.15234375
808.0,21514.052734375
809.0,22070.3046875
810.0,22772.79296875
811.0,23595.427734375
812.0,24499.400390625
813.0,25421.203125
814.0,26266.767578125
815.0,26926.615234375
816.0,27312.82421875
817.0,27395.275390625
818.0,27207.693359375
819.0,26817.48828125
820.0,26286.03125
821.0,25652.455078125
822.0,24946.57421875
823.0,24206.47265625
824.0,23476.87109375
825.0,22791.361328125
826.0,22160.982421875
827.0,21582.359375
828.0,21055.22265625
829.0,20590.40625
830.0,20202.966796875
831.0,19902.162109375
832.0,19690.189453125
833.0,19567.533203125
834.0,19533.525390625
835.0,19577.970703125
836.0,19672.943359375
837.0,19775.54296875
838.0,19840.005859375
839.0,19827.326171875
840.0,19706.11328125
841.0,19451.51953125
842.0,19051.4140625
843.0,18516.849609375
844.0,17884.388671875
845.0,17204.72265625
846.0,16526.470703125
847.0,15887.2919921875
848.0,15313.6806640625
849.0,14821.6943359375
850.0,14414.5556640625
851.0,14081.615234375
852.0,13803.560546875
853.0,13561.677734375
854.0,13345.0712890625
855.0,13152.6630859375
856.0,12990.4072265625
857.0,12864.64453125
858.0,12773.8837890625
859.0,12705.1064453125
860.0,12639.953125
861.0,12567.1630859375
862.0,12489.5966796875
863.0,12418.5771484375
864.0,12361.7978515625
865.0,12317.2666015625
866.0,12277.6455078125
867.0,12237.8837890625
868.0,12198.09375
869.0,12161.1787109375
870.0,12129.2744140625
871.0,12100.9404296875
872.0,12069.4609375
873.0,12024.896484375
874.0,11961.8603515625
875.0,11887.6318359375
876.0,11820.2822265625
877.0,11774.611328125
878.0,11748.310546875
879.0,11723.4208984375
880.0,11682.576171875
881.0,11623.24609375
882.0,11555.9306640625
883.0,11491.0322265625
884.0,11430.841796875
885.0,11374.2861328125
886.0,11325.28515625
887.0,11292.17578125
888.0,11278.763671875
889.0,11278.845703125
890.0,11281.2568359375
891.0,11278.994140625
892.0,11272.0009765625
893.0,11262.8115234375
894.0,11253.1572265625
895.0,11246.0048828125
896.0,11247.88671875
897.0,11265.439453125
898.0,11298.6875
899.0,11338.9453125
900.0,11373.9306640625
901.0,11395.1083984375
902.0,11402.130859375
903.0,11403.46484375
904.0,11412.83984375
905.0,11440.4482421875
906.0,11483.30859375
907.0,11525.826171875
908.0,11555.1962890625
909.0,11578.14453125
910.0,11618.744140625
911.0,11695.9267578125
912.0,11804.3671875
913.0,11921.072265625
914.0,12031.1591796875
915.0,12144.546875
916.0,12286.5517578125
917.0,12474.5478515625
918.0,12704.9111328125
919.0,12958.8408203125
920.0,13214.9853515625
921.0,13454.533203125
922.0,13658.4599609375
923.0,13807.5283203125
924.0,13891.4140625
925.0,13920.3291015625
926.0,13926.041015625
927.0,13947.5126953125
928.0,14011.8994140625
929.0,14127.5625
930.0,14293.9130859375
931.0,14515.5361328125
932.0,14805.041015625
933.0,15173.5771484375
934.0,15621.4248046875
935.0,16137.541015625
936.0,16703.6796875
937.0,17295.18359375
938.0,17880.255859375
939.0,18426.30859375
940.0,18914.23828125
941.0,19348.931640625
942.0,19754.767578125
943.0,20158.830078125
944.0,20575.3984375
945.0,21000.853515625
946.0,21415.921875
947.0,21788.15234375
948.0,22075.130859375
949.0,22235.546875
950.0,22249.51171875
951.0,22137.076171875
952.0,21960.013671875
953.0,21802.552734375
954.0,21740.685546875
955.0,21813.771484375
956.0,22007.306640625
957.0,22251.076171875
958.0,22435.7734375
959.0,22446.8828125
960.0,22204.923828125
961.0,21694.56640625
962.0,20969.705078125
963.0,20133.84765625
964.0,19305.373046875
965.0,18581.3984375
966.0,18013.76953125
967.0,17605.814453125
968.0,17327.9453125
969.0,17139.71875
970.0,17005.16796875
971.0,16897.951171875
972.0,16801.529296875
973.0,16708.880859375
974.0,16620.708984375
975.0,16540.189453125
976.0,16466.599609375
977.0,16392.388671875
978.0,16305.87109375
979.0,16197.9638671875
980.0,16069.623046875
981.0,15935.5576171875
982.0,15820.232421875
983.0,15746.7041015625
984.0,15725.814453125
985.0,15754.4853515625
986.0,15823.7158203125
987.0,15927.017578125
988.0,16059.80859375
989.0,16210.369140625
990.0,16352.3251953125
991.0,16447.57421875
992.0,16459.13671875
993.0,16365.4462890625
994.0,16167.498046875
995.0,15886.2333984375
996.0,15553.1005859375
997.0,15198.802734375
998.0,14844.853515625
999.0,14501.3515625
1000.0,14171.4462890625
1001.0,13858.1376953125
1002.0,13566.6708984375
1003.0,13300.4267578125
1004.0,13056.3984375
1005.0,12827.8056640625
1006.0,12612.6845703125
1007.0,12418.5283203125
1008.0,12256.3037109375
1009.0,12129.2080078125
1010.0,12027.7333984375
1011.0,11935.83203125
1012.0,11841.9990234375
1013.0,11745.857421875
1014.0,11656.025390625
1015.0,11581.8701171875
1016.0,11525.486328125
1017.0,11480.041015625
1018.0,11435.916015625
1019.0,11388.892578125
1020.0,11342.12890625
1021.0,11300.4169921875
1022.0,11264.146484375
1023.0,11230.1767578125
1024.0,11197.7236328125
1025.0,11171.18359375
1026.0,11155.9462890625
1027.0,11151.578125
1028.0,11149.4130859375
1029.0,11137.4716796875
1030.0,11109.5302734375
1031.0,11071.2333984375
1032.0,11037.0234375
1033.0,11018.8076171875
1034.0,11015.982421875
1035.0,11016.8232421875
1036.0,11010.201171875
1037.0,10995.748046875
1038.0,10982.7265625
1039.0,10980.060546875
1040.0,10987.7861328125
1041.0,10996.75
1042.0,10995.587890625
1043.0,10979.6650390625
1044.0,10955.9560546875
1045.0,10939.529296875
1046.0,10942.5673828125
1047.0,10964.16015625
1048.0,10990.4306640625
1049.0,11005.8642578125
1050.0,11005.72265625
1051.0,10998.0361328125
1052.0,10993.787109375
1053.0,10995.3681640625
1054.0,10994.9453125
1055.0,10984.3359375
1056.0,10965.8779296875
1057.0,10952.12109375
1058.0,10954.12109375
1059.0,10971.08203125
1060.0,10992.6396484375
1061.0,11010.1259765625
1062.0,11023.26171875
1063.0,11035.990234375
1064.0,11049.0400390625
1065.0,11058.9814453125
