n-Heptane
cm^-1,Intensity
150.0,20700.134765625
151.0,20365.994140625
152.0,20060.421875
153.0,19775.86328125
154.0,19495.048828125
155.0,19201.443359375
156.0,18889.84375
157.0,18570.12890625
158.0,18261.607421875
159.0,17981.978515625
160.0,17737.927734375
161.0,17523.029296875
162.0,17323.0546875
163.0,17124.6796875
164.0,16922.158203125
165.0,16718.87109375
166.0,16523.798828125
167.0,16345.416015625
168.0,16186.30078125
169.0,16040.958984375
170.0,15898.0537109375
171.0,15746.033203125
172.0,15579.6328125
173.0,15403.65234375
174.0,15231.498046875
175.0,15078.5341796875
176.0,14953.6103515625
177.0,14853.9990234375
178.0,14767.2900390625
179.0,14679.6201171875
180.0,14584.74609375
181.0,14487.7744140625
182.0,14400.6748046875
183.0,14333.01953125
184.0,14284.62109375
185.0,14245.427734375
186.0,14202.3837890625
187.0,14148.115234375
188.0,14085.3671875
189.0,14024.576171875
190.0,13976.78515625
191.0,13946.7080078125
192.0,13930.2119140625
193.0,13917.1826171875
194.0,13897.7373046875
195.0,13867.822265625
196.0,13831.015625
197.0,13795.669921875
198.0,13769.4482421875
199.0,13754.9912109375
200.0,13749.4375
201.0,13747.7822265625
202.0,13747.09375
203.0,13748.27734375
204.0,13754.240234375
205.0,13766.4599609375
206.0,13782.990234375
207.0,13799.4052734375
208.0,13811.408203125
209.0,13816.73828125
210.0,13815.1787109375
211.0,13807.5380859375
212.0,13795.185546875
213.0,13780.505859375
214.0,13767.2509765625
215.0,13759.724609375
216.0,13761.05078125
217.0,13771.9150390625
218.0,13790.6845703125
219.0,13814.4521484375
220.0,13839.73828125
221.0,13862.3681640625
222.0,13877.443359375
223.0,13880.658203125
224.0,13870.8798828125
225.0,13852.0703125
226.0,13832.2998046875
227.0,13819.572265625
228.0,13817.0615234375
229.0,13821.41015625
230.0,13825.85546875
231.0,13826.005859375
232.0,13823.86328125
233.0,13826.78125
234.0,13842.2392578125
235.0,13872.4765625
236.0,13912.9326171875
237.0,13955.142578125
238.0,13991.537109375
239.0,14019.00390625
240.0,14039.6640625
241.0,14059.2783203125
242.0,14084.34375
243.0,14118.951171875
244.0,14162.697265625
245.0,14210.96875
246.0,14257.8125
247.0,14299.51953125
248.0,14336.1796875
249.0,14370.0869140625
250.0,14402.8740234375
251.0,14434.4013671875
252.0,14464.3427734375
253.0,14494.392578125
254.0,14528.3505859375
255.0,14569.93359375
256.0,14620.7939453125
257.0,14681.0107421875
258.0,14751.2958984375
259.0,14834.173828125
260.0,14932.55078125
261.0,15047.2822265625
262.0,15176.642578125
263.0,15318.71484375
264.0,15474.5517578125
265.0,15649.19921875
266.0,15849.7392578125
267.0,16082.2333984375
268.0,16349.9580078125
269.0,16653.64453125
270.0,16992.732421875
271.0,17366.400390625
272.0,17774.08984375
273.0,18215.734375
274.0,18691.57421875
275.0,19201.171875
276.0,19741.728515625
277.0,20306.705078125
278.0,20885.67578125
279.0,21465.11328125
280.0,22028.9453125
281.0,22558.216796875
282.0,23031.1796875
283.0,23426.16015625
284.0,23727.8828125
285.0,23934.486328125
286.0,24060.3828125
287.0,24131.90625
288.0,24178.275390625
289.0,24224.279296875
290.0,24289.98828125
291.0,24396.5234375
292.0,24571.373046875
293.0,24847.544921875
294.0,25257.412109375
295.0,25828.40625
296.0,26586.49609375
297.0,27566.244140625
298.0,28820.009765625
299.0,30420.580078125
300.0,32457.681640625
301.0,35030.3359375
302.0,38230.30078125
303.0,42105.0546875
304.0,46595.8203125
305.0,51471.66796875
306.0,56303.18359375
307.0,60516.03515625
308.0,63528.44140625
309.0,64920.84765625
310.0,64560.6640625
311.0,62623.33984375
312.0,59504.2421875
313.0,55674.57421875
314.0,51549.9921875
315.0,47420.578125
316.0,43449.8125
317.0,39715.265625
318.0,36256.1953125
319.0,33103.30859375
320.0,30284.564453125
321.0,27816.015625
322.0,25691.6484375
323.0,23882.623046875
324.0,22346.849609375
325.0,21042.1640625
326.0,19934.55859375
327.0,18997.96875
328.0,18209.044921875
329.0,17543.052734375
330.0,16974.453125
331.0,16480.84375
332.0,16046.66015625
333.0,15664.0849609375
334.0,15330.9853515625
335.0,15047.2529296875
336.0,14811.2177734375
337.0,14617.833984375
338.0,14459.90625
339.0,14331.87890625
340.0,14233.6162109375
341.0,14170.9365234375
342.0,14152.111328125
343.0,14183.07421875
344.0,14265.349609375
345.0,14398.33984375
346.0,14583.58984375
347.0,14827.1611328125
348.0,15138.0908203125
349.0,15524.0009765625
350.0,15986.0517578125
351.0,16514.2109375
352.0,17082.845703125
353.0,17647.890625
354.0,18148.759765625
355.0,18518.01953125
356.0,18697.951171875
357.0,18657.654296875
358.0,18402.568359375
359.0,17971.736328125
360.0,17424.435546875
361.0,16823.251953125
362.0,16220.6650390625
363.0,15652.71875
364.0,15139.4443359375
365.0,14689.1328125
366.0,14303.3876953125
367.0,13980.6533203125
368.0,13717.1904296875
369.0,13506.4716796875
370.0,13339.3671875
371.0,13206.88671875
372.0,13104.361328125
373.0,13033.4130859375
374.0,12999.205078125
375.0,13004.734375
376.0,13047.529296875
377.0,13122.3408203125
378.0,13227.6591796875
379.0,13369.8349609375
380.0,13560.70703125
381.0,13811.2421875
382.0,14127.53125
383.0,14513.068359375
384.0,14974.9365234375
385.0,15528.16796875
386.0,16194.8212890625
387.0,16998.55078125
388.0,17956.94921875
389.0,19071.994140625
390.0,20317.943359375
391.0,21629.353515625
392.0,22897.212890625
393.0,23981.91796875
394.0,24745.3046875
395.0,25092.802734375
396.0,25007.53515625
397.0,24559.50390625
398.0,23883.544921875
399.0,23134.298828125
400.0,22438.01171875
401.0,21861.224609375
402.0,21405.94921875
403.0,21027.716796875
404.0,20663.451171875
405.0,20256.013671875
406.0,19768.98828125
407.0,19191.40625
408.0,18535.12890625
409.0,17827.765625
410.0,17103.8515625
411.0,16397.05859375
412.0,15735.5771484375
413.0,15140.5791015625
414.0,14626.1630859375
415.0,14199.5
416.0,13861.26171875
417.0,13606.458984375
418.0,13424.75390625
419.0,13299.3203125
420.0,13205.7158203125
421.0,13114.447265625
422.0,12999.06640625
423.0,12846.3466796875
424.0,12661.1845703125
425.0,12461.564453125
426.0,12266.8125
427.0,12087.6533203125
428.0,11924.5908203125
429.0,11773.712890625
430.0,11633.2958984375
431.0,11505.8642578125
432.0,11395.552734375
433.0,11304.5361328125
434.0,11231.6533203125
435.0,11173.4111328125
436.0,11125.8916015625
437.0,11086.3408203125
438.0,11054.029296875
439.0,11030.1533203125
440.0,11016.775390625
441.0,11015.5810546875
442.0,11027.748046875
443.0,11055.263671875
444.0,11102.48046875
445.0,11176.3837890625
446.0,11285.28515625
447.0,11436.6708984375
448.0,11634.2880859375
449.0,11873.7998046875
450.0,12137.9619140625
451.0,12395.37890625
452.0,12606.9765625
453.0,12739.1455078125
454.0,12775.8408203125
455.0,12721.052734375
456.0,12590.8466796875
457.0,12403.0439453125
458.0,12173.5517578125
459.0,11920.1474609375
460.0,11665.833984375
461.0,11434.71875
462.0,11242.5263671875
463.0,11090.916015625
464.0,10971.787109375
465.0,10877.4306640625
466.0,10806.7939453125
467.0,10762.7490234375
468.0,10744.7705078125
469.0,10745.5771484375
470.0,10754.8134765625
471.0,10765.1640625
472.0,10774.67578125
473.0,10784.3564453125
474.0,10795.400390625
475.0,10809.431640625
476.0,10830.234375
477.0,10863.0576171875
478.0,10910.771484375
479.0,10970.662109375
480.0,11035.6416015625
481.0,11099.0234375
482.0,11158.1962890625
483.0,11213.927734375
484.0,11267.0361328125
485.0,11316.560546875
486.0,11361.181640625
487.0,11401.4111328125
488.0,11439.359375
489.0,11476.224609375
490.0,11510.7294921875
491.0,11540.7861328125
492.0,11566.798828125
493.0,11592.9814453125
494.0,11625.1953125
495.0,11667.5087890625
496.0,11720.80078125
497.0,11784.4169921875
498.0,11858.95703125
499.0,11947.7216796875
500.0,12055.6533203125
501.0,12185.873046875
502.0,12334.7060546875
503.0,12487.23046875
504.0,12616.6513671875
505.0,12690.0400390625
506.0,12679.09375
507.0,12570.2978515625
508.0,12368.994140625
509.0,12096.310546875
510.0,11782.36328125
511.0,11459.3642578125
512.0,11155.453125
513.0,10889.0400390625
514.0,10665.6171875
515.0,10480.171875
516.0,10324.890625
517.0,10196.244140625
518.0,10095.259765625
519.0,10021.30078125
520.0,9966.5205078125
521.0,9917.5908203125
522.0,9863.4033203125
523.0,9801.1162109375
524.0,9734.916015625
525.0,9669.31640625
526.0,9603.67578125
527.0,9532.3310546875
528.0,9449.103515625
529.0,9352.0029296875
530.0,9245.1259765625
531.0,9137.2529296875
532.0,9038.1015625
533.0,8953.8974609375
534.0,8884.6806640625
535.0,8825.4130859375
536.0,8770.443359375
537.0,8717.822265625
538.0,8669.916015625
539.0,8630.2314453125
540.0,8599.875
541.0,8576.841796875
542.0,8557.8876953125
543.0,8540.173828125
544.0,8521.041015625
545.0,8497.234375
546.0,8465.8330078125
547.0,8426.8359375
548.0,8384.7021484375
549.0,8346.54296875
550.0,8317.8955078125
551.0,8299.560546875
552.0,8288.08984375
553.0,8279.009765625
554.0,8269.5283203125
555.0,8258.6474609375
556.0,8245.712890625
557.0,8229.9501953125
558.0,8211.828125
559.0,8194.2626953125
560.0,8181.3515625
561.0,8175.0166015625
562.0,8172.654296875
563.0,8168.4892578125
564.0,8157.87109375
565.0,8140.89111328125
566.0,8122.30810546875
567.0,8107.97265625
568.0,8100.6591796875
569.0,8098.26220703125
570.0,8095.18994140625
571.0,8085.75439453125
572.0,8067.56787109375
573.0,8043.2080078125
574.0,8019.20556640625
575.0,8002.62841796875
576.0,7997.03466796875
577.0,8000.4189453125
578.0,8006.85400390625
579.0,8010.896484375
580.0,8011.294921875
581.0,8010.7314453125
582.0,8011.77734375
583.0,8012.98828125
584.0,8009.32275390625
585.0,7996.97802734375
586.0,7978.0625
587.0,7960.29443359375
588.0,7951.72314453125
589.0,7955.22998046875
590.0,7967.4140625
591.0,7981.912109375
592.0,7993.3916015625
593.0,7999.28173828125
594.0,7999.61572265625
595.0,7996.69140625
596.0,7994.68017578125
597.0,7997.9443359375
598.0,8008.171875
599.0,8022.6298828125
600.0,8035.4736328125
601.0,8041.21826171875
602.0,8037.5615234375
603.0,8025.84912109375
604.0,8009.8759765625
605.0,7994.39013671875
606.0,7983.61181640625
607.0,7979.62255859375
608.0,7981.46728515625
609.0,7986.25341796875
610.0,7991.8857421875
611.0,7998.89208984375
612.0,8009.2109375
613.0,8022.94677734375
614.0,8036.56494140625
615.0,8044.88623046875
616.0,8045.42529296875
617.0,8041.0625
618.0,8038.4169921875
619.0,8043.12060546875
620.0,8055.8720703125
621.0,8072.3681640625
622.0,8086.85791015625
623.0,8096.1513671875
624.0,8100.9609375
625.0,8104.06884765625
626.0,8107.4443359375
627.0,8110.85205078125
628.0,8112.65185546875
629.0,8111.5595703125
630.0,8107.81396484375
631.0,8103.23583984375
632.0,8100.51025390625
633.0,8102.0732421875
634.0,8108.896484375
635.0,8119.75927734375
636.0,8131.74560546875
637.0,8141.9072265625
638.0,8148.89892578125
639.0,8153.30810546875
640.0,8156.6611328125
641.0,8160.3271484375
642.0,8165.29150390625
643.0,8172.453125
644.0,8182.416015625
645.0,8194.6376953125
646.0,8206.9990234375
647.0,8216.7861328125
648.0,8222.5400390625
649.0,8225.072265625
650.0,8226.5537109375
651.0,8228.5517578125
652.0,8231.0185546875
653.0,8233.1630859375
654.0,8235.05078125
655.0,8238.0087890625
656.0,8243.4296875
657.0,8251.5654296875
658.0,8261.7607421875
659.0,8273.47265625
660.0,8286.2314453125
661.0,8298.333984375
662.0,8306.51953125
663.0,8308.396484375
664.0,8305.7265625
665.0,8304.4912109375
666.0,8310.5654296875
667.0,8325.04296875
668.0,8344.2275390625
669.0,8364.1806640625
670.0,8384.4033203125
671.0,8406.390625
672.0,8429.271484375
673.0,8448.3681640625
674.0,8458.8935546875
675.0,8460.8173828125
676.0,8459.6767578125
677.0,8462.6904296875
678.0,8474.0693359375
679.0,8493.025390625
680.0,8514.818359375
681.0,8533.44140625
682.0,8544.9345703125
683.0,8550.1865234375
684.0,8555.1787109375
685.0,8567.46875
686.0,8591.005859375
687.0,8623.458984375
688.0,8658.185546875
689.0,8688.6796875
690.0,8711.7763671875
691.0,8728.04296875
692.0,8740.4482421875
693.0,8752.7548828125
694.0,8768.111328125
695.0,8788.14453125
696.0,8813.0751953125
697.0,8842.5810546875
698.0,8876.173828125
699.0,8912.65234375
700.0,8949.9453125
701.0,8986.6005859375
702.0,9023.6142578125
703.0,9064.0126953125
704.0,9110.0810546875
705.0,9161.3505859375
706.0,9215.8525390625
707.0,9272.9931640625
708.0,9334.2939453125
709.0,9401.158203125
710.0,9472.861328125
711.0,9547.6845703125
712.0,9625.8466796875
713.0,9710.3564453125
714.0,9804.3154296875
715.0,9907.4599609375
716.0,10015.7451171875
717.0,10124.654296875
718.0,10233.150390625
719.0,10344.55859375
720.0,10463.4169921875
721.0,10590.9228515625
722.0,10722.9091796875
723.0,10851.94921875
724.0,10971.3505859375
725.0,11077.3369140625
726.0,11168.43359375
727.0,11244.810546875
728.0,11310.0615234375
729.0,11373.705078125
730.0,11450.201171875
731.0,11553.638671875
732.0,11692.521484375
733.0,11868.958984375
734.0,12080.697265625
735.0,12320.6279296875
736.0,12572.5458984375
737.0,12809.0029296875
738.0,12997.3623046875
739.0,13112.08984375
740.0,13144.4921875
741.0,13103.681640625
742.0,13010.58984375
743.0,12890.54296875
744.0,12766.59765625
745.0,12652.9072265625
746.0,12550.06640625
747.0,12447.6845703125
748.0,12335.3173828125
749.0,12213.658203125
750.0,12095.4677734375
751.0,11995.3193359375
752.0,11919.0869140625
753.0,11864.1650390625
754.0,11829.21484375
755.0,11822.0654296875
756.0,11857.5732421875
757.0,11948.9130859375
758.0,12101.7451171875
759.0,12315.4208984375
760.0,12587.1904296875
761.0,12914.33984375
762.0,13294.162109375
763.0,13724.2587890625
764.0,14202.8876953125
765.0,14726.5693359375
766.0,15285.185546875
767.0,15859.603515625
768.0,16425.9140625
769.0,16963.521484375
770.0,17459.939453125
771.0,17908.79296875
772.0,18304.744140625
773.0,18640.689453125
774.0,18907.681640625
775.0,19094.36328125
776.0,19185.73828125
777.0,19165.728515625
778.0,19025.83984375
779.0,18773.96484375
780.0,18433.6015625
781.0,18031.4140625
782.0,17583.12890625
783.0,17090.423828125
784.0,16551.21484375
785.0,15973.30078125
786.0,15379.53125
787.0,14801.6875
788.0,14269.4970703125
789.0,13802.5498046875
790.0,13408.1845703125
791.0,13084.283203125
792.0,12824.453125
793.0,12622.5771484375
794.0,12473.7314453125
795.0,12371.2548828125
796.0,12304.0166015625
797.0,12258.66796875
798.0,12226.306640625
799.0,12207.236328125
800.0,12208.8125
801.0,12238.7041015625
802.0,12300.333984375
803.0,12393.6328125
804.0,12517.908203125
805.0,12672.87109375
806.0,12858.228515625
807.0,13074.494140625
808.0,13324.6708984375
809.0,13613.626953125
810.0,13944.328125
811.0,14314.4658203125
812.0,14716.99609375
813.0,15144.0224609375
814.0,15591.154296875
815.0,16061.5693359375
816.0,16570.943359375
817.0,17152.275390625
818.0,17856.287109375
819.0,18743.953125
820.0,19872.1796875
821.0,21276.833984375
822.0,22956.646484375
823.0,24861.126953125
824.0,26888.248046875
825.0,28899.720703125
826.0,30756.201171875
827.0,32361.376953125
828.0,33692.578125
829.0,34798.23046875
830.0,35761.6171875
831.0,36653.06640625
832.0,37500.76171875
833.0,38295.515625
834.0,39018.67578125
835.0,39665.37109375
836.0,40241.60546875
837.0,40736.4921875
838.0,41092.140625
839.0,41198.2265625
840.0,40923.4765625
841.0,40172.8359375
842.0,38941.359375
843.0,37336.21875
844.0,35556.4140625
845.0,33843.390625
846.0,32426.9296875
847.0,31483.115234375
848.0,31105.099609375
849.0,31279.87890625
850.0,31871.927734375
851.0,32627.7109375
852.0,33218.296875
853.0,33323.36328125
854.0,32734.552734375
855.0,31435.359375
856.0,29614.33984375
857.0,27596.474609375
858.0,25721.48046875
859.0,24229.462890625
860.0,23207.267578125
861.0,22606.349609375
862.0,22299.498046875
863.0,22134.453125
864.0,21967.884765625
865.0,21689.78515625
866.0,21247.93359375
867.0,20662.763671875
868.0,20015.580078125
869.0,19410.119140625
870.0,18929.3671875
871.0,18611.720703125
872.0,18453.41015625
873.0,18427.591796875
874.0,18506.703125
875.0,18678.34765625
876.0,18949.10546875
877.0,19336.9375
878.0,19861.3515625
879.0,20541.923828125
880.0,21404.064453125
881.0,22477.693359375
882.0,23777.83203125
883.0,25275.455078125
884.0,26880.48828125
885.0,28451.232421875
886.0,29825.298828125
887.0,30857.3515625
888.0,31453.822265625
889.0,31601.55859375
890.0,31386.533203125
891.0,30995.373046875
892.0,30695.72265625
893.0,30799.322265625
894.0,31614.326171875
895.0,33387.91796875
896.0,36235.3203125
897.0,40059.5
898.0,44489.30859375
899.0,48887.7734375
900.0,52478.21484375
901.0,54583.36328125
902.0,54887.7421875
903.0,53576.9921875
904.0,51245.30859375
905.0,48595.8046875
906.0,46101.09765625
907.0,43828.01171875
908.0,41520.796875
909.0,38861.80078125
910.0,35722.15234375
911.0,32249.794921875
912.0,28775.1953125
913.0,25633.7109375
914.0,23029.318359375
915.0,21002.21875
916.0,19480.0703125
917.0,18351.85546875
918.0,17517.482421875
919.0,16904.326171875
920.0,16466.001953125
921.0,16177.181640625
922.0,16026.869140625
923.0,16008.939453125
924.0,16113.20703125
925.0,16321.57421875
926.0,16608.076171875
927.0,16938.0546875
928.0,17266.826171875
929.0,17544.634765625
930.0,17731.1484375
931.0,17811.119140625
932.0,17797.91015625
933.0,17720.958984375
934.0,17607.2734375
935.0,17470.783203125
936.0,17314.583984375
937.0,17140.939453125
938.0,16960.837890625
939.0,16797.662109375
940.0,16682.7421875
941.0,16644.3671875
942.0,16696.763671875
943.0,16837.05859375
944.0,17051.33984375
945.0,17321.3359375
946.0,17623.4453125
947.0,17923.8046875
948.0,18181.611328125
949.0,18364.27734375
950.0,18461.1640625
951.0,18480.546875
952.0,18432.98828125
953.0,18321.3046875
954.0,18149.91015625
955.0,17942.23828125
956.0,17743.380859375
957.0,17599.62109375
958.0,17529.345703125
959.0,17506.365234375
960.0,17465.412109375
961.0,17326.634765625
962.0,17029.52734375
963.0,16562.2890625
964.0,15969.7900390625
965.0,15331.814453125
966.0,14724.3935546875
967.0,14191.38671875
968.0,13743.0791015625
969.0,13372.9609375
970.0,13071.7744140625
971.0,12830.080078125
972.0,12637.3564453125
973.0,12485.4794921875
974.0,12372.6494140625
975.0,12300.798828125
976.0,12268.9248046875
977.0,12270.8828125
978.0,12299.591796875
979.0,12351.1376953125
980.0,12424.3798828125
981.0,12519.150390625
982.0,12636.6533203125
983.0,12779.6953125
984.0,12949.07421875
985.0,13138.3154296875
986.0,13332.34765625
987.0,13511.193359375
988.0,13654.7421875
989.0,13746.3818359375
990.0,13777.3310546875
991.0,13752.0078125
992.0,13689.771484375
993.0,13618.615234375
994.0,13563.3896484375
995.0,13536.861328125
996.0,13539.853515625
997.0,13569.2333984375
998.0,13626.3603515625
999.0,13718.5380859375
1000.0,13852.08984375
1001.0,14023.6171875
1002.0,14218.48046875
1003.0,14418.9375
1004.0,14614.7763671875
1005.0,14807.4755859375
1006.0,15006.9677734375
1007.0,15227.48046875
1008.0,15486.7861328125
1009.0,15805.537109375
1010.0,16201.5673828125
1011.0,16680.396484375
1012.0,17229.234375
1013.0,17820.1015625
1014.0,18421.19140625
1015.0,19010.544921875
1016.0,19584.814453125
1017.0,20156.890625
1018.0,20740.833984375
1019.0,21331.638671875
1020.0,21894.8828125
1021.0,22377.259765625
1022.0,22733.466796875
1023.0,22951.09375
1024.0,23057.23828125
1025.0,23105.611328125
1026.0,23155.07421875
1027.0,23249.521484375
1028.0,23402.11328125
1029.0,23586.564453125
1030.0,23743.943359375
1031.0,23811.63671875
1032.0,23765.314453125
1033.0,23648.5078125
1034.0,23567.921875
1035.0,23657.072265625
1036.0,24033.453125
1037.0,24773.625
1038.0,25909.970703125
1039.0,27434.69140625
1040.0,29295.087890625
1041.0,31375.404296875
1042.0,33475.53125
1043.0,35311.79296875
1044.0,36569.20703125
1045.0,37010.15625
1046.0,36593.96875
1047.0,35527.86328125
1048.0,34199.1328125
1049.0,33020.1328125
1050.0,32278.875
1051.0,32071.494140625
1052.0,32322.267578125
1053.0,32846.7890625
1054.0,33420.84765625
1055.0,33846.7109375
1056.0,34011.48046875
1057.0,33912.83203125
1058.0,33630.04296875
1059.0,33257.328125
1060.0,32852.41796875
1061.0,32439.31640625
1062.0,32050.58203125
1063.0,31758.5
1064.0,31661.9765625
1065.0,31840.802734375
1066.0,32312.009765625
1067.0,33012.24609375
1068.0,33812.09765625
1069.0,34560.15234375
1070.0,35144.41015625
1071.0,35540.8203125
1072.0,35816.01171875
1073.0,36081.08984375
1074.0,36430.03515625
1075.0,36900.0234375
1076.0,37461.8203125
