Tert-butyl methyl ether
cm^-1,Intensity
150.0,2337.98388671875
151.0,2324.30810546875
152.0,2309.050537109375
153.0,2293.332275390625
154.0,2278.255859375
155.0,2263.671142578125
156.0,2248.269775390625
157.0,2231.06640625
158.0,2212.881591796875
159.0,2196.3515625
160.0,2184.253173828125
161.0,2177.488037109375
162.0,2174.38818359375
163.0,2171.927978515625
164.0,2167.837646484375
165.0,2161.9453125
166.0,2155.826171875
167.0,2151.237548828125
168.0,2148.7080078125
169.0,2147.2685546875
170.0,2145.310546875
171.0,2141.72998046875
172.0,2136.576171875
173.0,2130.9296875
174.0,2126.274169921875
175.0,2123.73095703125
176.0,2123.4833984375
177.0,2124.6103515625
178.0,2125.42578125
179.0,2124.207275390625
180.0,2119.944091796875
181.0,2112.738525390625
182.0,2103.7001953125
183.0,2094.478759765625
184.0,2086.673095703125
185.0,2081.293701171875
186.0,2078.41015625
187.0,2077.111572265625
188.0,2075.896240234375
189.0,2073.365234375
190.0,2068.861083984375
191.0,2062.672607421875
192.0,2055.71875
193.0,2049.010986328125
194.0,2043.27490234375
195.0,2038.901611328125
196.0,2036.069580078125
197.0,2034.8255615234373
198.0,2035.091552734375
199.0,2036.72607421875
200.0,2039.6768798828125
201.0,2044.0135498046875
202.0,2049.6142578125
203.0,2055.642333984375
204.0,2060.40087890625
205.0,2062.045166015625
206.0,2059.886474609375
207.0,2055.220947265625
208.0,2050.705322265625
209.0,2048.50537109375
210.0,2048.67822265625
211.0,2049.322021484375
212.0,2048.478271484375
213.0,2046.153564453125
214.0,2044.5311279296875
215.0,2046.1351318359373
216.0,2051.56787109375
217.0,2058.90966796875
218.0,2065.2587890625
219.0,2068.973876953125
220.0,2070.615966796875
221.0,2071.93212890625
222.0,2074.0068359375
223.0,2076.30224609375
224.0,2077.33056640625
225.0,2076.17431640625
226.0,2073.45654296875
227.0,2070.963623046875
228.0,2070.359375
229.0,2072.086669921875
230.0,2075.31494140625
231.0,2078.83740234375
232.0,2082.101806640625
233.0,2085.497314453125
234.0,2089.739501953125
235.0,2094.98046875
236.0,2100.514892578125
237.0,2105.381103515625
238.0,2109.313720703125
239.0,2113.14794921875
240.0,2118.24658203125
241.0,2125.409912109375
242.0,2134.166259765625
243.0,2143.01904296875
244.0,2150.3837890625
245.0,2155.454833984375
246.0,2158.39697265625
247.0,2159.90380859375
248.0,2160.671875
249.0,2161.28515625
250.0,2162.521728515625
251.0,2165.58544921875
252.0,2171.733154296875
253.0,2181.295654296875
254.0,2192.80908203125
255.0,2203.18505859375
256.0,2209.260986328125
257.0,2209.872802734375
258.0,2206.96337890625
259.0,2204.7041015625
260.0,2207.099853515625
261.0,2215.779541015625
262.0,2229.485107421875
263.0,2245.4423828125
264.0,2261.29052734375
265.0,2276.081298828125
266.0,2289.85791015625
267.0,2302.59130859375
268.0,2313.625244140625
269.0,2322.120361328125
270.0,2328.031982421875
271.0,2332.70849609375
272.0,2338.51708984375
273.0,2347.631591796875
274.0,2360.77685546875
275.0,2376.818115234375
276.0,2393.560546875
277.0,2409.209716796875
278.0,2423.36083984375
279.0,2436.7373046875
280.0,2449.958740234375
281.0,2462.555419921875
282.0,2473.151123046875
283.0,2480.57958984375
284.0,2484.68408203125
285.0,2485.9482421875
286.0,2484.415771484375
287.0,2479.271728515625
288.0,2469.810791015625
289.0,2456.957275390625
290.0,2443.64697265625
291.0,2433.26318359375
292.0,2427.2158203125
293.0,2423.7275390625
294.0,2419.077880859375
295.0,2410.41845703125
296.0,2397.95458984375
297.0,2384.728515625
298.0,2374.181884765625
299.0,2367.45947265625
300.0,2362.53076171875
301.0,2355.803466796875
302.0,2344.91650390625
303.0,2330.600830078125
304.0,2316.26318359375
305.0,2305.732177734375
306.0,2300.962890625
307.0,2301.2978515625
308.0,2304.546142578125
309.0,2308.65869140625
310.0,2312.560302734375
311.0,2315.713623046875
312.0,2317.261962890625
313.0,2315.932861328125
314.0,2310.984130859375
315.0,2303.304931640625
316.0,2295.457763671875
317.0,2290.345458984375
318.0,2289.417236328125
319.0,2291.8154296875
320.0,2295.10791015625
321.0,2296.986328125
322.0,2296.666748046875
323.0,2295.108642578125
324.0,2294.201904296875
325.0,2295.69873046875
326.0,2300.5283203125
327.0,2308.599609375
328.0,2318.89599609375
329.0,2329.83984375
330.0,2340.067626953125
331.0,2349.440185546875
332.0,2359.602294921875
333.0,2373.33447265625
334.0,2392.78857421875
335.0,2417.826904296875
336.0,2445.90478515625
337.0,2473.8671875
338.0,2500.33251953125
339.0,2526.70556640625
340.0,2555.925048828125
341.0,2589.9287109375
342.0,2627.90234375
343.0,2666.540283203125
344.0,2701.79443359375
345.0,2730.447998046875
346.0,2750.404541015625
347.0,2760.096435546875
348.0,2758.24951171875
349.0,2744.634033203125
350.0,2721.074462890625
351.0,2691.500732421875
352.0,2660.66259765625
353.0,2632.466796875
354.0,2609.1376953125
355.0,2591.38818359375
356.0,2578.775146484375
357.0,2569.663330078125
358.0,2561.41552734375
359.0,2551.842529296875
360.0,2541.61572265625
361.0,2535.489013671875
362.0,2540.345458984375
363.0,2560.64404296875
364.0,2594.76318359375
365.0,2635.583984375
366.0,2675.10791015625
367.0,2709.3017578125
368.0,2739.0693359375
369.0,2766.9814453125
370.0,2793.181396484375
371.0,2814.235107421875
372.0,2825.542236328125
373.0,2824.55615234375
374.0,2811.92138671875
375.0,2790.1328125
376.0,2761.703125
377.0,2728.670166015625
378.0,2693.27392578125
379.0,2658.26708984375
380.0,2625.938232421875
381.0,2596.6806640625
382.0,2568.7587890625
383.0,2539.98046875
384.0,2510.12744140625
385.0,2482.03955078125
386.0,2460.15576171875
387.0,2447.334228515625
388.0,2442.42333984375
389.0,2440.6640625
390.0,2436.8671875
391.0,2429.015380859375
392.0,2419.402099609375
393.0,2412.45947265625
394.0,2411.1220703125
395.0,2414.740234375
396.0,2420.078857421875
397.0,2424.148681640625
398.0,2426.269287109375
399.0,2427.79150390625
400.0,2430.22021484375
401.0,2433.75341796875
402.0,2437.417236328125
403.0,2440.272705078125
404.0,2442.31298828125
405.0,2444.366455078125
406.0,2447.474853515625
407.0,2452.52734375
408.0,2460.283447265625
409.0,2471.276611328125
410.0,2485.30029296875
411.0,2500.8935546875
412.0,2515.528564453125
413.0,2526.619384765625
414.0,2532.6708984375
415.0,2533.71630859375
416.0,2530.798583984375
417.0,2525.06396484375
418.0,2517.23193359375
419.0,2507.76123046875
420.0,2497.394287109375
421.0,2487.438720703125
422.0,2479.36474609375
423.0,2473.88134765625
424.0,2470.18359375
425.0,2466.119140625
426.0,2459.401123046875
427.0,2449.17626953125
428.0,2436.88427734375
429.0,2425.796875
430.0,2419.525634765625
431.0,2420.339111328125
432.0,2428.0791015625
433.0,2440.120361328125
434.0,2452.4736328125
435.0,2461.71337890625
436.0,2466.8125
437.0,2469.589111328125
438.0,2473.156982421875
439.0,2479.35791015625
440.0,2487.224609375
441.0,2493.875244140625
442.0,2497.0966796875
443.0,2497.324462890625
444.0,2497.347412109375
445.0,2500.14892578125
446.0,2506.853515625
447.0,2516.33837890625
448.0,2526.4189453125
449.0,2535.446044921875
450.0,2543.289306640625
451.0,2551.414794921875
452.0,2562.13818359375
453.0,2577.1904296875
454.0,2596.0771484375
455.0,2615.34326171875
456.0,2629.783203125
457.0,2635.35546875
458.0,2631.929443359375
459.0,2623.584228515625
460.0,2615.895263671875
461.0,2612.16845703125
462.0,2611.543212890625
463.0,2610.3876953125
464.0,2605.58544921875
465.0,2596.795654296875
466.0,2586.009521484375
467.0,2575.28955078125
468.0,2565.069091796875
469.0,2554.4228515625
470.0,2542.55224609375
471.0,2529.741455078125
472.0,2517.02392578125
473.0,2505.37060546875
474.0,2495.49462890625
475.0,2488.208251953125
476.0,2484.372802734375
477.0,2484.027099609375
478.0,2485.5986328125
479.0,2486.3916015625
480.0,2484.2939453125
481.0,2479.259033203125
482.0,2473.194091796875
483.0,2468.41748046875
484.0,2466.084716796875
485.0,2465.73681640625
486.0,2465.969482421875
487.0,2465.453857421875
488.0,2463.70703125
489.0,2461.411376953125
490.0,2460.1513671875
491.0,2461.492431640625
492.0,2465.869873046875
493.0,2472.231689453125
494.0,2478.916748046875
495.0,2485.036865234375
496.0,2491.1142578125
497.0,2498.710693359375
498.0,2510.020263671875
499.0,2528.033203125
500.0,2556.346435546875
501.0,2597.418701171875
502.0,2650.23681640625
503.0,2710.299072265625
504.0,2773.092529296875
505.0,2837.81103515625
506.0,2906.197509765625
507.0,2975.980712890625
508.0,3035.25830078125
509.0,3065.173828125
510.0,3050.90625
511.0,2992.087646484375
512.0,2903.366455078125
513.0,2804.8994140625
514.0,2711.38720703125
515.0,2628.160888671875
516.0,2554.792724609375
517.0,2490.027099609375
518.0,2433.1962890625
519.0,2383.061279296875
520.0,2337.698974609375
521.0,2296.368896484375
522.0,2260.7392578125
523.0,2233.405517578125
524.0,2215.01123046875
525.0,2203.00537109375
526.0,2193.193115234375
527.0,2182.34716796875
528.0,2169.608642578125
529.0,2156.05029296875
530.0,2143.2822265625
531.0,2132.1474609375
532.0,2122.069580078125
533.0,2111.357177734375
534.0,2098.426513671875
535.0,2083.18701171875
536.0,2067.412353515625
537.0,2053.672119140625
538.0,2043.7471923828125
539.0,2037.84326171875
540.0,2034.980712890625
541.0,2033.8218994140625
542.0,2033.1881103515625
543.0,2032.2762451171875
544.0,2030.89306640625
545.0,2029.559814453125
546.0,2029.0655517578125
547.0,2029.5997314453125
548.0,2030.2958984375
549.0,2029.7498779296875
550.0,2027.037841796875
551.0,2022.202880859375
552.0,2015.8482666015625
553.0,2008.53173828125
554.0,2000.7474365234373
555.0,1993.3331298828125
556.0,1987.44189453125
557.0,1983.7398681640625
558.0,1981.64111328125
559.0,1979.646484375
560.0,1976.7210693359373
561.0,1973.37451171875
562.0,1971.2125244140625
563.0,1971.2523193359373
564.0,1972.6427001953125
565.0,1973.0850830078125
566.0,1970.596435546875
567.0,1965.0194091796875
568.0,1958.0325927734373
569.0,1951.8768310546875
570.0,1948.033203125
571.0,1946.8184814453125
572.0,1947.8424072265625
573.0,1950.585205078125
574.0,1954.4801025390625
575.0,1958.5474853515625
576.0,1961.1942138671875
577.0,1960.771240234375
578.0,1956.8175048828125
579.0,1951.0147705078125
580.0,1946.626708984375
581.0,1946.267333984375
582.0,1949.57861328125
583.0,1953.0443115234373
584.0,1952.61376953125
585.0,1947.1416015625
586.0,1939.51953125
587.0,1934.3343505859373
588.0,1934.145263671875
589.0,1937.7269287109373
590.0,1941.582275390625
591.0,1942.865478515625
592.0,1940.8824462890625
593.0,1936.3768310546875
594.0,1930.2646484375
595.0,1923.5650634765625
596.0,1918.2147216796875
597.0,1916.9454345703125
598.0,1921.389404296875
599.0,1929.9517822265625
600.0,1937.8671875
601.0,1940.07568359375
602.0,1934.84033203125
603.0,1925.0914306640625
604.0,1916.3038330078125
605.0,1912.6182861328125
606.0,1914.2686767578125
607.0,1918.1591796875
608.0,1920.8173828125
609.0,1921.119873046875
610.0,1920.5777587890625
611.0,1921.2183837890625
612.0,1923.20947265625
613.0,1924.5172119140625
614.0,1922.938232421875
615.0,1918.5462646484373
616.0,1914.12158203125
617.0,1913.0380859375
618.0,1916.535888671875
619.0,1922.8543701171875
620.0,1928.8389892578125
621.0,1932.28955078125
622.0,1932.897216796875
623.0,1931.4298095703125
624.0,1928.67578125
625.0,1925.4400634765625
626.0,1923.0999755859373
627.0,1923.2891845703125
628.0,1926.4593505859373
629.0,1930.87841796875
630.0,1933.5634765625
631.0,1932.552978515625
632.0,1928.3377685546875
633.0,1923.1632080078125
634.0,1919.177978515625
635.0,1917.3038330078125
636.0,1917.37255859375
637.0,1918.5682373046875
638.0,1919.5120849609373
639.0,1918.5750732421875
640.0,1915.007080078125
641.0,1910.010498046875
642.0,1906.2327880859373
643.0,1905.7147216796875
644.0,1908.322265625
645.0,1912.3294677734373
646.0,1916.337158203125
647.0,1920.2403564453125
648.0,1924.3743896484373
649.0,1928.367919921875
650.0,1931.387451171875
651.0,1933.2935791015625
652.0,1934.8651123046875
653.0,1936.6021728515625
654.0,1937.751708984375
655.0,1937.079833984375
656.0,1934.5765380859373
657.0,1931.8900146484373
658.0,1930.82080078125
659.0,1931.6473388671875
660.0,1933.22509765625
661.0,1934.558349609375
662.0,1935.8438720703125
663.0,1937.9156494140625
664.0,1941.1336669921875
665.0,1945.1922607421875
666.0,1949.743408203125
667.0,1954.54541015625
668.0,1958.76416015625
669.0,1960.6846923828125
670.0,1958.964599609375
671.0,1954.498291015625
672.0,1950.605224609375
673.0,1950.650146484375
674.0,1955.0286865234373
675.0,1960.482421875
676.0,1962.61669921875
677.0,1959.43408203125
678.0,1952.8543701171875
679.0,1947.25
680.0,1946.620361328125
681.0,1952.60693359375
682.0,1964.1932373046875
683.0,1978.5732421875
684.0,1992.5068359375
685.0,2003.8182373046875
686.0,2012.4952392578125
687.0,2020.508544921875
688.0,2030.0938720703125
689.0,2041.6588134765625
690.0,2053.072265625
691.0,2060.947509765625
692.0,2062.812744140625
693.0,2058.593505859375
694.0,2050.7724609375
695.0,2043.5057373046875
696.0,2041.02880859375
697.0,2045.62451171875
698.0,2056.047607421875
699.0,2067.811767578125
700.0,2075.84326171875
701.0,2077.983642578125
702.0,2076.650146484375
703.0,2077.126953125
704.0,2083.7001953125
705.0,2096.731689453125
706.0,2113.10986328125
707.0,2129.657470703125
708.0,2146.454833984375
709.0,2167.08447265625
710.0,2195.70849609375
711.0,2233.909423828125
712.0,2280.38427734375
713.0,2333.906494140625
714.0,2397.31689453125
715.0,2479.851806640625
716.0,2596.892578125
717.0,2769.6376953125
718.0,3030.577392578125
719.0,3438.447998046875
720.0,4092.3603515625
721.0,5116.00390625
722.0,6584.966796875
723.0,8413.6396484375
724.0,10280.21875
725.0,11683.85546875
726.0,12151.904296875
727.0,11489.388671875
728.0,9899.8349609375
729.0,7882.5439453125
730.0,5974.95947265625
731.0,4517.17919921875
732.0,3577.1494140625
733.0,3037.094970703125
734.0,2734.202392578125
735.0,2551.231689453125
736.0,2430.5712890625
737.0,2348.98046875
738.0,2294.576904296875
739.0,2258.11474609375
740.0,2231.298828125
741.0,2206.780029296875
742.0,2180.193359375
743.0,2152.834228515625
744.0,2130.7041015625
745.0,2119.1767578125
746.0,2118.16943359375
747.0,2122.41259765625
748.0,2125.809814453125
749.0,2125.288818359375
750.0,2121.41650390625
751.0,2116.627197265625
752.0,2113.08349609375
753.0,2111.332275390625
754.0,2110.22265625
755.0,2108.15869140625
756.0,2104.8046875
757.0,2101.556640625
758.0,2100.1376953125
759.0,2100.859375
760.0,2102.638671875
761.0,2104.65380859375
762.0,2107.28662109375
763.0,2110.872314453125
764.0,2113.931884765625
765.0,2113.7822265625
766.0,2109.61767578125
767.0,2104.599853515625
768.0,2103.91015625
769.0,2110.17724609375
770.0,2120.9248046875
771.0,2130.643798828125
772.0,2135.158447265625
773.0,2134.015625
774.0,2129.502685546875
775.0,2124.531494140625
776.0,2121.63818359375
777.0,2122.782958984375
778.0,2128.605712890625
779.0,2137.488037109375
780.0,2146.06005859375
781.0,2151.3388671875
782.0,2152.510498046875
783.0,2150.734130859375
784.0,2147.73779296875
785.0,2145.015380859375
786.0,2143.915283203125
787.0,2145.476806640625
788.0,2149.68359375
789.0,2155.27587890625
790.0,2160.767822265625
791.0,2165.48291015625
792.0,2169.314208984375
793.0,2171.91015625
794.0,2172.966064453125
795.0,2173.416015625
796.0,2175.36474609375
797.0,2179.98046875
798.0,2185.764404296875
799.0,2189.839599609375
800.0,2191.1826171875
801.0,2191.883056640625
802.0,2194.70751953125
803.0,2199.86279296875
804.0,2204.837158203125
805.0,2207.2861328125
806.0,2207.311767578125
807.0,2206.667724609375
808.0,2206.439208984375
809.0,2206.253173828125
810.0,2205.58154296875
811.0,2204.974365234375
812.0,2205.552001953125
813.0,2207.63671875
814.0,2210.464111328125
815.0,2213.265380859375
816.0,2216.116943359375
817.0,2219.33349609375
818.0,2222.300537109375
819.0,2223.69873046875
820.0,2223.427978515625
821.0,2224.011474609375
822.0,2229.13134765625
823.0,2240.009033203125
824.0,2253.33056640625
825.0,2263.502197265625
826.0,2267.5771484375
827.0,2268.046142578125
828.0,2270.572998046875
829.0,2278.855224609375
830.0,2291.593505859375
831.0,2304.237548828125
832.0,2313.453125
833.0,2319.986572265625
834.0,2327.588134765625
835.0,2339.422607421875
836.0,2355.41064453125
837.0,2372.82177734375
838.0,2389.462158203125
839.0,2406.46435546875
840.0,2427.890869140625
841.0,2457.1611328125
842.0,2493.693359375
843.0,2533.887451171875
844.0,2576.958251953125
845.0,2630.408447265625
846.0,2707.952880859375
847.0,2818.5361328125
848.0,2954.887939453125
849.0,3093.345458984375
850.0,3207.287841796875
851.0,3282.411376953125
852.0,3319.25537109375
853.0,3322.034423828125
854.0,3288.357177734375
855.0,3212.945556640625
856.0,3100.85888671875
857.0,2973.15185546875
858.0,2856.140625
859.0,2764.546630859375
860.0,2695.542236328125
861.0,2637.876220703125
862.0,2584.435791015625
863.0,2535.949951171875
864.0,2495.849609375
865.0,2465.0322265625
866.0,2441.865966796875
867.0,2424.804931640625
868.0,2413.0732421875
869.0,2405.23193359375
870.0,2398.678955078125
871.0,2391.3984375
872.0,2383.885498046875
873.0,2378.693359375
874.0,2377.7548828125
875.0,2380.205078125
876.0,2383.084228515625
877.0,2384.2822265625
878.0,2384.544921875
879.0,2386.247802734375
880.0,2390.31591796875
881.0,2394.953125
882.0,2397.7646484375
883.0,2398.764892578125
884.0,2400.670654296875
885.0,2406.166259765625
886.0,2415.322021484375
887.0,2425.946044921875
888.0,2436.1513671875
889.0,2446.174560546875
890.0,2457.756103515625
891.0,2472.238037109375
892.0,2489.656982421875
893.0,2509.433837890625
894.0,2531.058349609375
895.0,2553.38330078125
896.0,2573.892333984375
897.0,2590.7626953125
898.0,2607.327880859375
899.0,2633.590087890625
900.0,2680.1005859375
901.0,2747.742919921875
902.0,2823.70556640625
903.0,2889.255859375
904.0,2932.44677734375
905.0,2953.526123046875
906.0,2959.755126953125
907.0,2958.201904296875
908.0,2954.689208984375
909.0,2956.257080078125
910.0,2969.321044921875
911.0,2993.38916015625
912.0,3018.86767578125
913.0,3033.803955078125
914.0,3033.127685546875
915.0,3020.699462890625
916.0,3003.342529296875
917.0,2984.53857421875
918.0,2963.366943359375
919.0,2936.89013671875
920.0,2902.266357421875
921.0,2858.494140625
922.0,2808.751708984375
923.0,2760.99951171875
924.0,2723.90234375
925.0,2700.3896484375
926.0,2685.338134765625
927.0,2670.19677734375
928.0,2649.929931640625
929.0,2625.751953125
930.0,2602.352783203125
931.0,2583.4873046875
932.0,2569.6181640625
933.0,2558.162841796875
934.0,2545.319091796875
935.0,2528.547119140625
936.0,2508.45263671875
937.0,2488.460205078125
938.0,2472.10546875
939.0,2460.2275390625
940.0,2450.739990234375
941.0,2441.169921875
942.0,2431.429443359375
943.0,2424.125732421875
944.0,2422.060791015625
945.0,2425.19140625
946.0,2429.97412109375
947.0,2431.934326171875
948.0,2429.101318359375
949.0,2422.89794921875
950.0,2415.84130859375
951.0,2409.03759765625
952.0,2402.3583984375
953.0,2396.328369140625
954.0,2392.426513671875
955.0,2391.121337890625
956.0,2390.6767578125
957.0,2388.92919921875
958.0,2385.867919921875
959.0,2383.4853515625
960.0,2383.208251953125
961.0,2384.59521484375
962.0,2386.860595703125
963.0,2390.438720703125
964.0,2395.811279296875
965.0,2401.167236328125
966.0,2402.606201171875
967.0,2397.40380859375
968.0,2386.86328125
969.0,2375.701171875
970.0,2368.6474609375
971.0,2367.25732421875
972.0,2369.22412109375
973.0,2370.576904296875
974.0,2369.314453125
975.0,2367.46044921875
976.0,2368.9716796875
977.0,2374.81982421875
978.0,2380.582275390625
979.0,2380.1953125
980.0,2372.4482421875
981.0,2362.743896484375
982.0,2357.7470703125
983.0,2359.107177734375
984.0,2363.427001953125
985.0,2367.581787109375
986.0,2371.968994140625
987.0,2377.83984375
988.0,2383.365234375
989.0,2384.732421875
990.0,2381.223876953125
991.0,2377.1572265625
992.0,2377.308349609375
993.0,2381.138916015625
994.0,2383.161376953125
995.0,2379.309326171875
996.0,2371.84423828125
997.0,2367.296875
998.0,2370.250732421875
999.0,2379.91796875
1000.0,2392.202392578125
1001.0,2403.70654296875
1002.0,2413.429443359375
1003.0,2421.939453125
1004.0,2430.28564453125
1005.0,2439.48388671875
1006.0,2449.74462890625
1007.0,2459.663330078125
1008.0,2467.029052734375
1009.0,2471.388916015625
